0.9816855992573709, 0.9703497525374548, 0.5608669297754335, 0.09611001681964644, 0.19780902281732396, 0.2277654873442887, 0.15501325519849696, 0.14752654058204473, 0.1437583457446138, 0.1458876889191513, 0.13929378754513533, 0.14775372425254052, 0.15813925247387783, 0.1531902704312921, 0.15699046580655368, 0.16793681656753148, 0.18328478868670967, 0.19002970578703732, 0.19702012407799438, 0.21100363080618986, 0.21989067756576994, 0.23192873384299503, 0.25239968467428675, 0.27894614685428915, 0.2960287534583973, 0.31757368498462574, 0.33068184396044614, 0.35133495412347165, 0.3704593781116311, 0.3823478945605688, 0.39165422900302727, 0.3867137794141773, 0.38300797783898344, 0.3495801833099444, 0.32153072034668606, 0.29276415127938715, 0.2555845808289549, 0.2224414958370901, 0.20284941317726, 0.19288007165786814, 0.18976454488629732, 0.1766467824622829, 0.17752446473047795, 0.17995461928818607, 0.17454922222068997, 0.1741434102776063, 0.16713529119883866, 0.1685631976677631, 0.17350243040868443, 0.17207165742336536, 0.16147280795106497, 0.16626885449230427, 0.1699963581601687, 0.1565808339631501, 0.14519193942233521, 0.1498273363624054, 0.15629481873787238, 0.15078373487449204, 0.13171272209817778, 0.1325898332920611, 0.1419269482239032, 0.13921248305879905, 0.1285630167978492, 0.12773171674026093, 0.12965674473728098, 0.11707132713713665, 0.11607982781610585, 0.12577049554779898, 0.12656585033821516, 0.1196298975797608, 0.126497012507315, 0.14078607120909298, 0.1452309713572234, 0.1398581634336135, 0.1402216359195389, 0.15222348991032958, 0.15981915430894558, 0.15621408974993012, 0.15186897137464828, 0.14533013268208236, 0.14423813305386074, 0.1318836791209541, 0.10175072029483634, 0.0863221240467123, 0.11039034290775031, 0.10420253696280514, 0.09486975411993977, 0.09961370425236284, 0.10170659733032032, 0.12967613925784427, 0.2559804211242597, 0.5520143106311922, 0.8730190332048886, 0.9997134510262543, 0.862842878565824, 0.3984840176451771, 0.00034136267980294517, 0.1536413354951909, 0.1640382857681159, 0.11149829743239333, 0.11431963299665848, 0.11144775108201044, 0.09718583560795381, 0.10191958950852263, 0.1170229267934412, 0.11779246556317283, 0.11970946948862822, 0.12326519549195443, 0.12981359976886397, 0.13937009342431933, 0.1430394984942102, 0.0005383001787094732, -0.0003489277330508061, 0.0010051375475873879, 0.0004385153114882362, -0.0011482948464758714, 0.0013837682405307692, 0.00014372830840732407, 0.0004480016846952603, -0.0012355608378392016, -0.0004062155829768052, 0.00039517410739602825, -0.0012072706985596885, 0.0019012086910943171, -0.00017282870771133564, 0.00033370182038563003, 0.0014060867757596845, 0.001260409567442459, 0.001016733528701545, -0.0017918764119688813, 0.00033514688340001366, 0.001131677659494671, 0.0011906569068793926, -0.001476841984650196, 0.0012234197991199966, -5.927476699378421e-05, 0.0008968212225342933, 0.0015013706397325336, -4.863809499041102e-05, -7.698033787607003e-05, -0.0020598904303014004, -1.5403281706660523e-05, 0.00048184338321317015, -0.0008940330442892215, 0.0004951434112719526, -0.0012603224315786735, -0.0002684613330384966, -0.0013727131392042128, 3.672623650068788e-05, -0.0002081798088620705, -9.526226350950631e-05, -0.00015423363932957925, 0.0016730367746882358, -0.0007936465864894366, 0.0009625189357995679, 0.0008481226084879359, 0.0004480132728721102, -0.0021191976737933308, 0.0005040134757148288, -0.000952300091703451, -0.0010372640771331354, 5.451804696093623e-05, 0.0008482447760948241, 0.00019961380442333135, 0.0033684554167018534, 0.0017927211949268396, 0.00018289504329235283, -0.000338923136171121, -0.0009075077169036997, 1.8497170464974353e-05, -0.0007525813953617961, -0.00014769249989084372, -0.00039039220586634967, -0.0001925936103971185, -0.0027077331257636898, -0.0002879123113324449, 0.000991767808894848, -0.0016529923230771378, 0.001007720637466756, -0.0006259880831525423, -8.312545019182707e-05, -0.0004172991897034633, -0.000274127137383127, -0.00032839454588678643, 0.0003295898161138049, 0.0004271815006232232, 0.00018179390758203012, 1
0.9816855992573709, 0.9703497525374548, 0.5608669297754335, 0.09611001681964644, 0.19780902281732396, 0.2277654873442887, 0.15501325519849696, 0.14752654058204473, 0.1437583457446138, 0.1458876889191513, 0.13929378754513533, 0.14775372425254052, 0.15813925247387783, 0.1531902704312921, 0.15699046580655368, 0.16793681656753148, 0.18328478868670967, 0.19002970578703732, 0.19702012407799438, 0.21100363080618986, 0.21989067756576994, 0.23192873384299503, 0.25239968467428675, 0.27894614685428915, 0.2960287534583973, 0.31757368498462574, 0.33068184396044614, 0.35133495412347165, 0.3704593781116311, 0.3823478945605688, 0.39165422900302727, 0.3867137794141773, 0.38300797783898344, 0.3495801833099444, 0.32153072034668606, 0.29276415127938715, 0.2555845808289549, 0.2224414958370901, 0.20284941317726, 0.19288007165786814, 0.18976454488629732, 0.1766467824622829, 0.17752446473047795, 0.17995461928818607, 0.17454922222068997, 0.1741434102776063, 0.16713529119883866, 0.1685631976677631, 0.17350243040868443, 0.17207165742336536, 0.16147280795106497, 0.16626885449230427, 0.1699963581601687, 0.1565808339631501, 0.14519193942233521, 0.1498273363624054, 0.15629481873787238, 0.15078373487449204, 0.13171272209817778, 0.1325898332920611, 0.1419269482239032, 0.13921248305879905, 0.1285630167978492, 0.12773171674026093, 0.12965674473728098, 0.11707132713713665, 0.11607982781610585, 0.12577049554779898, 0.12656585033821516, 0.1196298975797608, 0.126497012507315, 0.14078607120909298, 0.1452309713572234, 0.1398581634336135, 0.1402216359195389, 0.15222348991032958, 0.15981915430894558, 0.15621408974993012, 0.15186897137464828, 0.14533013268208236, 0.14423813305386074, 0.1318836791209541, 0.10175072029483634, 0.0863221240467123, 0.11039034290775031, 0.10420253696280514, 0.09486975411993977, 0.09961370425236284, 0.10170659733032032, 0.12967613925784427, 0.2559804211242597, 0.5520143106311922, 0.8730190332048886, 0.9997134510262543, 0.862842878565824, 0.3984840176451771, 0.00034136267980294517, 0.1536413354951909, 0.1640382857681159, 0.11149829743239333, 0.11431963299665848, 0.11144775108201044, 0.09718583560795381, 0.10191958950852263, 0.1170229267934412, 0.11779246556317283, 0.11970946948862822, 0.12326519549195443, 0.12981359976886397, 0.13937009342431933, 0.1430394984942102, 0.0005383001787094732, -0.0003489277330508061, 0.0010051375475873879, 0.0004385153114882362, -0.0011482948464758714, 0.0013837682405307692, 0.00014372830840732407, 0.0004480016846952603, -0.0012355608378392016, -0.0004062155829768052, 0.00039517410739602825, -0.0012072706985596885, 0.0019012086910943171, -0.00017282870771133564, 0.00033370182038563003, 0.0014060867757596845, 0.001260409567442459, 0.001016733528701545, -0.0017918764119688813, 0.00033514688340001366, 0.001131677659494671, 0.0011906569068793926, -0.001476841984650196, 0.0012234197991199966, -5.927476699378421e-05, 0.0008968212225342933, 0.0015013706397325336, -4.863809499041102e-05, -7.698033787607003e-05, -0.0020598904303014004, -1.5403281706660523e-05, 0.00048184338321317015, -0.0008940330442892215, 0.0004951434112719526, -0.0012603224315786735, -0.0002684613330384966, -0.0013727131392042128, 3.672623650068788e-05, -0.0002081798088620705, -9.526226350950631e-05, -0.00015423363932957925, 0.0016730367746882358, -0.0007936465864894366, 0.0009625189357995679, 0.0008481226084879359, 0.0004480132728721102, -0.0021191976737933308, 0.0005040134757148288, -0.000952300091703451, -0.0010372640771331354, 5.451804696093623e-05, 0.0008482447760948241, 0.00019961380442333135, 0.0033684554167018534, 0.0017927211949268396, 0.00018289504329235283, -0.000338923136171121, -0.0009075077169036997, 1.8497170464974353e-05, -0.0007525813953617961, -0.00014769249989084372, -0.00039039220586634967, -0.0001925936103971185, -0.0027077331257636898, -0.0002879123113324449, 0.000991767808894848, -0.0016529923230771378, 0.001007720637466756, -0.0006259880831525423, -8.312545019182707e-05, -0.0004172991897034633, -0.000274127137383127, -0.00032839454588678643, 0.0003295898161138049, 0.0004271815006232232, 0.00018179390758203012, 1
0.9816855992573709, 0.9703497525374548, 0.5608669297754335, 0.09611001681964644, 0.19780902281732396, 0.2277654873442887, 0.15501325519849696, 0.14752654058204473, 0.1437583457446138, 0.1458876889191513, 0.13929378754513533, 0.14775372425254052, 0.15813925247387783, 0.1531902704312921, 0.15699046580655368, 0.16793681656753148, 0.18328478868670967, 0.19002970578703732, 0.19702012407799438, 0.21100363080618986, 0.21989067756576994, 0.23192873384299503, 0.25239968467428675, 0.27894614685428915, 0.2960287534583973, 0.31757368498462574, 0.33068184396044614, 0.35133495412347165, 0.3704593781116311, 0.3823478945605688, 0.39165422900302727, 0.3867137794141773, 0.38300797783898344, 0.3495801833099444, 0.32153072034668606, 0.29276415127938715, 0.2555845808289549, 0.2224414958370901, 0.20284941317726, 0.19288007165786814, 0.18976454488629732, 0.1766467824622829, 0.17752446473047795, 0.17995461928818607, 0.17454922222068997, 0.1741434102776063, 0.16713529119883866, 0.1685631976677631, 0.17350243040868443, 0.17207165742336536, 0.16147280795106497, 0.16626885449230427, 0.1699963581601687, 0.1565808339631501, 0.14519193942233521, 0.1498273363624054, 0.15629481873787238, 0.15078373487449204, 0.13171272209817778, 0.1325898332920611, 0.1419269482239032, 0.13921248305879905, 0.1285630167978492, 0.12773171674026093, 0.12965674473728098, 0.11707132713713665, 0.11607982781610585, 0.12577049554779898, 0.12656585033821516, 0.1196298975797608, 0.126497012507315, 0.14078607120909298, 0.1452309713572234, 0.1398581634336135, 0.1402216359195389, 0.15222348991032958, 0.15981915430894558, 0.15621408974993012, 0.15186897137464828, 0.14533013268208236, 0.14423813305386074, 0.1318836791209541, 0.10175072029483634, 0.0863221240467123, 0.11039034290775031, 0.10420253696280514, 0.09486975411993977, 0.09961370425236284, 0.10170659733032032, 0.12967613925784427, 0.2559804211242597, 0.5520143106311922, 0.8730190332048886, 0.9997134510262543, 0.862842878565824, 0.3984840176451771, 0.00034136267980294517, 0.1536413354951909, 0.1640382857681159, 0.11149829743239333, 0.11431963299665848, 0.11144775108201044, 0.09718583560795381, 0.10191958950852263, 0.1170229267934412, 0.11779246556317283, 0.11970946948862822, 0.12326519549195443, 0.12981359976886397, 0.13937009342431933, 0.1430394984942102, 0.0005383001787094732, -0.0003489277330508061, 0.0010051375475873879, 0.0004385153114882362, -0.0011482948464758714, 0.0013837682405307692, 0.00014372830840732407, 0.0004480016846952603, -0.0012355608378392016, -0.0004062155829768052, 0.00039517410739602825, -0.0012072706985596885, 0.0019012086910943171, -0.00017282870771133564, 0.00033370182038563003, 0.0014060867757596845, 0.001260409567442459, 0.001016733528701545, -0.0017918764119688813, 0.00033514688340001366, 0.001131677659494671, 0.0011906569068793926, -0.001476841984650196, 0.0012234197991199966, -5.927476699378421e-05, 0.0008968212225342933, 0.0015013706397325336, -4.863809499041102e-05, -7.698033787607003e-05, -0.0020598904303014004, -1.5403281706660523e-05, 0.00048184338321317015, -0.0008940330442892215, 0.0004951434112719526, -0.0012603224315786735, -0.0002684613330384966, -0.0013727131392042128, 3.672623650068788e-05, -0.0002081798088620705, -9.526226350950631e-05, -0.00015423363932957925, 0.0016730367746882358, -0.0007936465864894366, 0.0009625189357995679, 0.0008481226084879359, 0.0004480132728721102, -0.0021191976737933308, 0.0005040134757148288, -0.000952300091703451, -0.0010372640771331354, 5.451804696093623e-05, 0.0008482447760948241, 0.00019961380442333135, 0.0033684554167018534, 0.0017927211949268396, 0.00018289504329235283, -0.000338923136171121, -0.0009075077169036997, 1.8497170464974353e-05, -0.0007525813953617961, -0.00014769249989084372, -0.00039039220586634967, -0.0001925936103971185, -0.0027077331257636898, -0.0002879123113324449, 0.000991767808894848, -0.0016529923230771378, 0.001007720637466756, -0.0006259880831525423, -8.312545019182707e-05, -0.0004172991897034633, -0.000274127137383127, -0.00032839454588678643, 0.0003295898161138049, 0.0004271815006232232, 0.00018179390758203012, 1
0.963570222772645, 0.7881043971017325, 0.14409106586485038, 0.0009333989285129306, 0.07024247569373193, 0.08665927602942913, 0.04542914510010037, 0.08607669877028695, 0.14561296990144545, 0.09741169217800318, 0.11347655306630999, 0.18379982662240366, 0.2257153448364698, 0.3469073501960086, 0.4216864379399618, 0.3933877346780834, 0.41065827973508545, 0.4174431751375119, 0.47691296155411705, 0.4907762987552122, 0.48087176377127977, 0.4700145285742759, 0.4850579890252143, 0.5036325456281343, 0.48061853354391937, 0.4871745698465186, 0.5070756915135624, 0.5194502333621154, 0.5080798572496347, 0.49125970123083007, 0.518828257352702, 0.49795436046728064, 0.5035121414924204, 0.4934179245382435, 0.5231492689285626, 0.554583847648489, 0.5457812257795445, 0.5553635378275522, 0.576726049518216, 0.535870872958783, 0.48400392915539264, 0.43246675227985665, 0.3850829108312391, 0.29230318152804585, 0.25920452970692653, 0.2684575631596982, 0.31591571664484785, 0.32001280254161507, 0.27468276891779947, 0.30660004713317146, 0.3192208404866145, 0.3902150995506766, 0.40967852260056403, 0.41052638483160886, 0.4105103501193817, 0.41588180964388227, 0.4222833258806165, 0.40997573251618075, 0.41519220377450816, 0.42719517951978636, 0.3845785472578625, 0.37918134465531594, 0.4100229173209341, 0.43834071198589086, 0.38444398066512125, 0.3412969506373502, 0.3518502063935622, 0.3352672220480805, 0.30669589894006, 0.3082066674954587, 0.3245918859747177, 0.3248850816459932, 0.3028542108434413, 0.2827353760239452, 0.2979109566201491, 0.2828831373680617, 0.2702414135869812, 0.2707079489512536, 0.2723185232246657, 0.2529531954502078, 0.20696658141633673, 0.3356920145098783, 0.398447095265918, 0.44909028222088904, 0.5123471857829749, 0.7283283281044811, 0.9987082833962716, 0.8313874211748533, 0.18342527970087427, 0.027743973833818075, 0.16125536700164408, 0.1737165208089027, 0.14192111107163885, 0.24281258259530153, 0.24813708701784337, 0.2043145746154128, 0.23187399714747536, 0.29211104878913613, 0.36670659402094685, 0.39414343935824514, 0.32946504589628733, 0.2927138585788642, 0.3138119581696965, 0.3144675345400889, -0.0013520588346461807, 0.0006868227609301677, 0.0006231150612911267, -0.0002579457630437873, 0.0004209070578070818, -0.0014682464248017653, -0.0010103614446597933, -0.000477657880505985, 6.338788797871056e-06, -0.00021462009161486625, 0.0008852775297256494, -0.0007384443263019649, -0.0007618322914781314, 0.0001571292800731958, 0.00015351394295362873, -0.0001459936469004784, -0.0013352581821812752, 0.0022840596860817567, 0.0007048366858774795, -0.0021381954802870704, 0.0003960598427201435, -0.00029662189127835424, -0.0016053423776257434, -0.0003054219162794111, 0.0008628594183526915, 0.0009407998478871888, -0.0007364871316992599, 0.0013837688267327823, 0.002580997369285003, -0.0006041464972441711, 0.0014291313637326314, -0.0013725062004056791, -0.0002901412610133078, 0.0002821500069140859, -0.0006303029886504338, -0.001959207666426557, 0.0001269533501046385, 0.0002128444629899253, -0.0005248629246612402, 8.51123391964275e-05, 0.0006246461210478442, -0.00044739373912330036, 0.0010451921266822707, 0.000661233215467592, -0.0014701548041471453, -0.0003947784143572411, 0.0018605049322287074, -0.0012971590746999016, 0.0008622078561418709, -0.0007101241998755474, -0.00025558044313957613, -0.0020763779445667685, -0.001281103934278174, -0.00029346312531802445, 0.00021519774249264498, 0.0008429173908749472, -0.0018254334528039352, -0.0012937414460563463, 0.0020622291772739052, 1.3945247768069131e-05, -0.0008855949123938856, 0.0013139542743841966, 9.901468132625398e-05, 0.000557262782665319, 0.0006140040143724955, 0.00018865047244222106, 0.001697763988306541, 0.0007530639279980633, -0.0014460009643320034, -0.0018295631475967055, -0.0007783950037384869, -0.0007108777765897754, 0.0006260499814030402, -0.0005020845262476417, -0.0007855389471647334, 0.000282983711628479, -0.00023662466763811103, -0.0007427268629725313, -0.0012188671569624884, 0.00012830990412248454, 0.00042501419113560396, 0.0024560483989415527, 0.00013687699326119987, 1
0.9993515914190084, 0.9780489215143936, 0.7845279101698277, 0.3290143302370197, 0.13614806273033783, 0.21645622467586897, 0.20526388640275697, 0.12554532960954312, 0.10479850823646777, 0.09323726070066496, 0.11924479732385769, 0.09594320878417008, 0.12263830785452332, 0.10375628803703776, 0.11780145921510125, 0.11496608120075405, 0.12301553115798038, 0.10814512308723233, 0.13090067171129688, 0.11884960636057305, 0.12348638178451368, 0.11286777072387395, 0.13400846205727446, 0.13509898038480742, 0.12361525196452744, 0.12608671489937617, 0.1603293379657851, 0.15279648571085155, 0.16634351084794285, 0.15573694522537984, 0.17630429475502554, 0.16492940527907418, 0.17115841184161165, 0.15961220523174235, 0.18800862910715116, 0.17214779368565014, 0.1634625103293484, 0.15778474672599885, 0.17350390763623655, 0.1531918601961187, 0.15505334245573066, 0.14231289565856226, 0.16767999645984316, 0.15751591282864538, 0.14046219835010923, 0.12935943436160424, 0.1403731472194045, 0.1277676539447714, 0.11932163452346567, 0.1033175740558184, 0.1121873866384654, 0.11960475137023399, 0.11178751303085582, 0.11134347462451878, 0.11943405085024632, 0.12352782130923433, 0.11881360943240653, 0.11680092358753481, 0.1225147184486293, 0.14170915770125309, 0.1432828557462175, 0.1452879897294747, 0.18976585705191273, 0.21015006303911982, 0.23068641125697137, 0.2174224070197482, 0.24137287183258108, 0.22556119310175404, 0.2135186233862718, 0.1751186068734191, 0.19466859884279608, 0.14140020380615695, 0.11451869405716916, 0.092123681620905, 0.11120971355417084, 0.10247337098805173, 0.09970807894597446, 0.07671691941362979, 0.06454806394075527, -0.0004182563688957796, 0.04244505869204134, 0.30766282614687007, 0.6384657858877839, 0.8920235293652212, 0.9809377792919021, 0.9296561070032403, 0.8114828226107268, 0.3876955660312603, 0.09918560841034942, 0.12771209773133949, 0.15750527529963065, 0.07195194946881554, 0.04427115534258073, 0.04368153355344919, 0.06574058661799566, 0.07520220210780615, 0.06816675868660661, 0.059074337450778516, 0.0661708134631174, 0.07149479859676446, 0.0614951531173461, 0.0008916028938223063, 0.0017500277216303912, -0.00016628995009354477, -0.0008275287945363628, -0.002425204639503141, 0.0015180224417096766, 0.0007654425234035568, -0.00038876407926640425, 0.0005246984268688208, 0.0006225582473648536, -0.0005458443167355458, 0.00024834097619904055, -0.0008869287330738552, 0.001301536495955213, 0.0016044484307895905, -0.0011370474155006653, 0.0008158888912642503, -0.0003328755262007315, 9.113910501701555e-06, -0.0008211604774424244, -0.0023141857856111706, 0.0006847137878942307, -0.0003732840444056421, -0.00042541948743603377, -0.0003445958249433946, -0.0024974972165707787, -0.00036845934838896006, 3.18902238395965e-05, 0.001096937742763396, 0.0004422980118161697, -0.00019862582371488305, 0.002003709014436701, 0.0010895066250055662, -0.0018788913969818774, -0.0015587609427102473, -0.00038798954965057607, -0.00020867305164761897, 0.0003376743198181182, 0.00024886457163808345, 0.0010058296320635087, -0.0008945543406564446, 0.00014505193271280049, -0.0004706716269078098, 0.0002400087513291359, 0.0011341211978861546, 0.0003675976125503226, 0.00045918277877159076, -0.0011769965425914943, 0.0011605198439192423, -0.0013144678768157504, -0.0018475329597231961, 0.0023497111881776093, -0.0019498046594353664, -0.0002759857363762076, 0.0005100728452782092, -3.693796975313708e-08, 0.0011831106654006337, 0.0007872047991666765, 0.0010741142757572384, -0.002340773833489129, -0.0005229206156086542, 0.0003641911607666736, -0.000626855760130991, -0.00013556109558291544, -0.0008481834786602229, 0.0008889446575543306, -0.0008151673248904995, 0.0014032950129004974, -0.0010579444863771082, 0.002026810258297218, 0.00024480849059332763, -0.0003438044634639231, -0.0003295137031815215, -0.0006234712743922119, 0.00046888226010892816, 0.00111765887607187, 0.00021097650680193273, 5.259893414315888e-05, -0.000713864736126375, -0.0010697569510179016, -0.0006835705249941273, -0.0011998417886520468, -0.0004717313441608789, 0.0013714947258325813, -0.000300268993267599, -0.0008346315269996274, 1
0.9493008886813633, 0.9194330816093892, 0.5512257233198187, 0.27060345021090243, 0.1319769106906161, 0.12240845992300133, 0.06724488670090809, 0.05337832684954032, 0.017441145461005822, 0.023538036021659322, 0.011957721165500158, 0.012166817390900643, -0.0003768532177843304, 0.01460745944046075, 0.011236079795728425, 0.02103491033796688, 0.018831011507856436, 0.026999361662240224, 0.01814042491894155, 0.035438933136006455, 0.042548093482865604, 0.059150859655967544, 0.05381065094389109, 0.07027169100868987, 0.07137658528358104, 0.09049174607794759, 0.08077545809636129, 0.09766412835005919, 0.10496864788006399, 0.10952999088065137, 0.10397942120368256, 0.11140873241980041, 0.09753227556194172, 0.08829350930934866, 0.07742640011133808, 0.08012233027070867, 0.07767323858149619, 0.07897287165466536, 0.08002391510580649, 0.08347068012831199, 0.0710594320034268, 0.08171777198502142, 0.07406615149521806, 0.07410196732472789, 0.06650608559329738, 0.10140325588182318, 0.10885160483453399, 0.12736672127059956, 0.13533562273416777, 0.21524503574899895, 0.4133427892003268, 0.6555270270139586, 0.8910028767432696, 0.9992691143836177, 0.8073797122158818, 0.40444211529211865, 0.1842564341948605, 0.12764912385505867, 0.06821591749492015, 0.062224702813763896, 0.03737277238706134, 0.046148175372173195, 0.0250561073263379, 0.016301001610734247, -0.00016962541254605048, 0.0007820938300085469, 0.00015127541260413242, -0.0007576504302841713, -0.0004414031387473386, 0.001486514059907991, 3.0316571667494484e-06, 0.00048167779775981146, -0.0003637240827034838, 0.00010225044407022028, 0.0008088183750681225, 0.0009277373547539409, -0.0027729225747842204, -0.00010962309328230986, 0.0011231322449717321, -0.0007265805685274682, -0.0015001922524973752, 0.0007951545866409119, 0.0008626977994514027, 0.0018225858048939786, -0.0015201627297787123, -0.0005623914259775941, -0.00046465933903393387, 0.0004519389449131122, 0.0024011972563412693, 0.0013437845450452056, 0.0003238938953369342, -0.00012668537397311612, -0.0002004762875142361, -0.0015071753144634994, -0.0009597702539990461, -0.0016824087686817281, -0.0009237280147513532, -0.0008111048616549517, 0.0007415357066859459, 0.0016847298348138793, -0.0011281579927158601, -0.0004024764900421803, 0.00084732851499593, -0.00033326361955772824, -0.0008007810852908283, -0.0014373684874046124, 0.0013207122841021011, -0.0010665201845952393, 0.0011265989324157196, -0.0013696827804046928, 0.0004496221680505598, -0.0011770443232753678, 0.0008117349534334553, -0.00032946741375040607, 0.002229521995502607, 0.0010128135292768003, 0.0004671298895103684, -0.001126813118917743, -0.00019610367404041099, -0.0010558629050145482, 0.00038396122050862486, -0.0002247168567227326, 0.0004089801272130816, 0.0009120582449665372, -0.0023105533472967755, -0.0015837687964471527, 0.00032675070837476553, -0.0012438234422155118, 0.0003060935594350963, -0.0008503257553745874, -0.0004773791060069302, 8.245543456060371e-05, 0.0015931907738915626, 0.0006410541082442811, 0.00012297109599238975, 0.001622779955004655, -0.0025890364118456256, 0.0012833059382220712, 0.00035951803255354224, 0.0003353092108581732, 0.0005724083465847137, 0.0003739999138407385, -0.000841293080390501, 0.0014871285721685533, 0.0011748407839647296, 0.0007473780973731784, 0.0008255131167276518, 0.0009625980800820176, -9.349828455001756e-05, -0.0005920218940051544, -0.0009243076978201425, 0.0003939249579219119, 0.000252553132354749, -0.0021798844155326126, -0.0009427294944903943, -0.00033051440884764645, -0.0014450997985218943, -0.002138312165865396, -0.00019810297814624233, 2.5108526332535014e-05, -0.0006615500627904012, 0.0006833052228449539, -0.000650983095940587, 0.0008682195480235827, 0.00018316294657409027, 9.35127775849685e-05, 3.45466303267762e-05, 0.0009764868412384543, 0.0017939713003166146, 0.0013045647407592235, -0.000629025112987959, -0.002576414599504264, -0.0009367960669797292, -0.0005955758305362176, -0.002614495874824765, 0.0007733705724184274, -0.001715884022944557, 0.00018602566345965002, 0.0009756890958472046, 0.0007568806680614946, 0.001059646019327737, -0.0004414287342968377, 0.0004056350835943009, -5.649503318162207e-05, -0.0006121539026901398, 0.00041618734158214304, 0.00013975963319334676, 1
0.9993515914190084, 0.9780489215143936, 0.7845279101698277, 0.3290143302370197, 0.13614806273033783, 0.21645622467586897, 0.20526388640275697, 0.12554532960954312, 0.10479850823646777, 0.09323726070066496, 0.11924479732385769, 0.09594320878417008, 0.12263830785452332, 0.10375628803703776, 0.11780145921510125, 0.11496608120075405, 0.12301553115798038, 0.10814512308723233, 0.13090067171129688, 0.11884960636057305, 0.12348638178451368, 0.11286777072387395, 0.13400846205727446, 0.13509898038480742, 0.12361525196452744, 0.12608671489937617, 0.1603293379657851, 0.15279648571085155, 0.16634351084794285, 0.15573694522537984, 0.17630429475502554, 0.16492940527907418, 0.17115841184161165, 0.15961220523174235, 0.18800862910715116, 0.17214779368565014, 0.1634625103293484, 0.15778474672599885, 0.17350390763623655, 0.1531918601961187, 0.15505334245573066, 0.14231289565856226, 0.16767999645984316, 0.15751591282864538, 0.14046219835010923, 0.12935943436160424, 0.1403731472194045, 0.1277676539447714, 0.11932163452346567, 0.1033175740558184, 0.1121873866384654, 0.11960475137023399, 0.11178751303085582, 0.11134347462451878, 0.11943405085024632, 0.12352782130923433, 0.11881360943240653, 0.11680092358753481, 0.1225147184486293, 0.14170915770125309, 0.1432828557462175, 0.1452879897294747, 0.18976585705191273, 0.21015006303911982, 0.23068641125697137, 0.2174224070197482, 0.24137287183258108, 0.22556119310175404, 0.2135186233862718, 0.1751186068734191, 0.19466859884279608, 0.14140020380615695, 0.11451869405716916, 0.092123681620905, 0.11120971355417084, 0.10247337098805173, 0.09970807894597446, 0.07671691941362979, 0.06454806394075527, -0.0004182563688957796, 0.04244505869204134, 0.30766282614687007, 0.6384657858877839, 0.8920235293652212, 0.9809377792919021, 0.9296561070032403, 0.8114828226107268, 0.3876955660312603, 0.09918560841034942, 0.12771209773133949, 0.15750527529963065, 0.07195194946881554, 0.04427115534258073, 0.04368153355344919, 0.06574058661799566, 0.07520220210780615, 0.06816675868660661, 0.059074337450778516, 0.0661708134631174, 0.07149479859676446, 0.0614951531173461, 0.0008916028938223063, 0.0017500277216303912, -0.00016628995009354477, -0.0008275287945363628, -0.002425204639503141, 0.0015180224417096766, 0.0007654425234035568, -0.00038876407926640425, 0.0005246984268688208, 0.0006225582473648536, -0.0005458443167355458, 0.00024834097619904055, -0.0008869287330738552, 0.001301536495955213, 0.0016044484307895905, -0.0011370474155006653, 0.0008158888912642503, -0.0003328755262007315, 9.113910501701555e-06, -0.0008211604774424244, -0.0023141857856111706, 0.0006847137878942307, -0.0003732840444056421, -0.00042541948743603377, -0.0003445958249433946, -0.0024974972165707787, -0.00036845934838896006, 3.18902238395965e-05, 0.001096937742763396, 0.0004422980118161697, -0.00019862582371488305, 0.002003709014436701, 0.0010895066250055662, -0.0018788913969818774, -0.0015587609427102473, -0.00038798954965057607, -0.00020867305164761897, 0.0003376743198181182, 0.00024886457163808345, 0.0010058296320635087, -0.0008945543406564446, 0.00014505193271280049, -0.0004706716269078098, 0.0002400087513291359, 0.0011341211978861546, 0.0003675976125503226, 0.00045918277877159076, -0.0011769965425914943, 0.0011605198439192423, -0.0013144678768157504, -0.0018475329597231961, 0.0023497111881776093, -0.0019498046594353664, -0.0002759857363762076, 0.0005100728452782092, -3.693796975313708e-08, 0.0011831106654006337, 0.0007872047991666765, 0.0010741142757572384, -0.002340773833489129, -0.0005229206156086542, 0.0003641911607666736, -0.000626855760130991, -0.00013556109558291544, -0.0008481834786602229, 0.0008889446575543306, -0.0008151673248904995, 0.0014032950129004974, -0.0010579444863771082, 0.002026810258297218, 0.00024480849059332763, -0.0003438044634639231, -0.0003295137031815215, -0.0006234712743922119, 0.00046888226010892816, 0.00111765887607187, 0.00021097650680193273, 5.259893414315888e-05, -0.000713864736126375, -0.0010697569510179016, -0.0006835705249941273, -0.0011998417886520468, -0.0004717313441608789, 0.0013714947258325813, -0.000300268993267599, -0.0008346315269996274, 1
0.9816855992573709, 0.9703497525374548, 0.5608669297754335, 0.09611001681964644, 0.19780902281732396, 0.2277654873442887, 0.15501325519849696, 0.14752654058204473, 0.1437583457446138, 0.1458876889191513, 0.13929378754513533, 0.14775372425254052, 0.15813925247387783, 0.1531902704312921, 0.15699046580655368, 0.16793681656753148, 0.18328478868670967, 0.19002970578703732, 0.19702012407799438, 0.21100363080618986, 0.21989067756576994, 0.23192873384299503, 0.25239968467428675, 0.27894614685428915, 0.2960287534583973, 0.31757368498462574, 0.33068184396044614, 0.35133495412347165, 0.3704593781116311, 0.3823478945605688, 0.39165422900302727, 0.3867137794141773, 0.38300797783898344, 0.3495801833099444, 0.32153072034668606, 0.29276415127938715, 0.2555845808289549, 0.2224414958370901, 0.20284941317726, 0.19288007165786814, 0.18976454488629732, 0.1766467824622829, 0.17752446473047795, 0.17995461928818607, 0.17454922222068997, 0.1741434102776063, 0.16713529119883866, 0.1685631976677631, 0.17350243040868443, 0.17207165742336536, 0.16147280795106497, 0.16626885449230427, 0.1699963581601687, 0.1565808339631501, 0.14519193942233521, 0.1498273363624054, 0.15629481873787238, 0.15078373487449204, 0.13171272209817778, 0.1325898332920611, 0.1419269482239032, 0.13921248305879905, 0.1285630167978492, 0.12773171674026093, 0.12965674473728098, 0.11707132713713665, 0.11607982781610585, 0.12577049554779898, 0.12656585033821516, 0.1196298975797608, 0.126497012507315, 0.14078607120909298, 0.1452309713572234, 0.1398581634336135, 0.1402216359195389, 0.15222348991032958, 0.15981915430894558, 0.15621408974993012, 0.15186897137464828, 0.14533013268208236, 0.14423813305386074, 0.1318836791209541, 0.10175072029483634, 0.0863221240467123, 0.11039034290775031, 0.10420253696280514, 0.09486975411993977, 0.09961370425236284, 0.10170659733032032, 0.12967613925784427, 0.2559804211242597, 0.5520143106311922, 0.8730190332048886, 0.9997134510262543, 0.862842878565824, 0.3984840176451771, 0.00034136267980294517, 0.1536413354951909, 0.1640382857681159, 0.11149829743239333, 0.11431963299665848, 0.11144775108201044, 0.09718583560795381, 0.10191958950852263, 0.1170229267934412, 0.11779246556317283, 0.11970946948862822, 0.12326519549195443, 0.12981359976886397, 0.13937009342431933, 0.1430394984942102, 0.0005383001787094732, -0.0003489277330508061, 0.0010051375475873879, 0.0004385153114882362, -0.0011482948464758714, 0.0013837682405307692, 0.00014372830840732407, 0.0004480016846952603, -0.0012355608378392016, -0.0004062155829768052, 0.00039517410739602825, -0.0012072706985596885, 0.0019012086910943171, -0.00017282870771133564, 0.00033370182038563003, 0.0014060867757596845, 0.001260409567442459, 0.001016733528701545, -0.0017918764119688813, 0.00033514688340001366, 0.001131677659494671, 0.0011906569068793926, -0.001476841984650196, 0.0012234197991199966, -5.927476699378421e-05, 0.0008968212225342933, 0.0015013706397325336, -4.863809499041102e-05, -7.698033787607003e-05, -0.0020598904303014004, -1.5403281706660523e-05, 0.00048184338321317015, -0.0008940330442892215, 0.0004951434112719526, -0.0012603224315786735, -0.0002684613330384966, -0.0013727131392042128, 3.672623650068788e-05, -0.0002081798088620705, -9.526226350950631e-05, -0.00015423363932957925, 0.0016730367746882358, -0.0007936465864894366, 0.0009625189357995679, 0.0008481226084879359, 0.0004480132728721102, -0.0021191976737933308, 0.0005040134757148288, -0.000952300091703451, -0.0010372640771331354, 5.451804696093623e-05, 0.0008482447760948241, 0.00019961380442333135, 0.0033684554167018534, 0.0017927211949268396, 0.00018289504329235283, -0.000338923136171121, -0.0009075077169036997, 1.8497170464974353e-05, -0.0007525813953617961, -0.00014769249989084372, -0.00039039220586634967, -0.0001925936103971185, -0.0027077331257636898, -0.0002879123113324449, 0.000991767808894848, -0.0016529923230771378, 0.001007720637466756, -0.0006259880831525423, -8.312545019182707e-05, -0.0004172991897034633, -0.000274127137383127, -0.00032839454588678643, 0.0003295898161138049, 0.0004271815006232232, 0.00018179390758203012, 1
0.9995564797278748, 0.5328748234117952, 0.13065616360361273, 0.17161321652732314, 0.10752605626704642, 0.062245249695134695, 0.0821369473971792, 0.09997314869946657, 0.1479259405375653, 0.1713552115271321, 0.20904594608653967, 0.2373776234135773, 0.25479025576324243, 0.26605294636799637, 0.29903511298594687, 0.3056907269623553, 0.26331333284128944, 0.19327851475490626, 0.1767459423677233, 0.147180252767686, 0.11784173069682476, 0.10486336745178118, 0.10489521043932491, 0.08783836189154419, 0.09344497578643235, 0.06796450483266046, 0.053945143714809664, 0.03748022165489044, 0.016726329906051742, 0.02196755803086291, 0.020768264627590113, 0.03509748939179534, 0.06644122847637618, 0.11858649096523743, 0.19808368378465532, 0.252486378374633, 0.22251461139923, 0.20061718777113224, 0.21429845836964231, 0.2102762027722888, 0.1986886283808436, 0.15348065630571328, 0.10832488276968408, 0.09546428783636236, 0.11766195347267333, 0.0991297871789067, 0.06717007923765658, 0.0004263579592230859, 0.3819450810869898, 0.8609914556592047, 0.6641326189205783, 0.11408309063793035, 0.15457845097161116, 0.15903652649725455, 0.11514261029499327, 0.09320141690981673, 0.10399920437465779, 0.12091754784517052, 0.13045384115638703, 0.19764753402278257, 0.23858939248056554, 0.2904876930728941, 0.3104981664838544, 0.310481240692334, 0.3321653460243668, 0.29764156169742995, 0.22991779285510228, 0.15944243345026976, 0.12978020126794768, 0.12558301489738383, 0.11353174928968375, 0.11258702032207663, -0.001019913570403053, -0.0012148260686379781, -0.00020162291189076157, 0.000357838656448445, 0.0014547558498065691, 7.27612330763438e-05, -0.0016261417127194481, -0.0009387002435547276, -0.0005014536822463354, -0.0006920775846123416, -0.0007025885008659637, 0.00026270262265982227, 0.0006855487398259178, 0.0007167661112920407, -0.0011493520185458244, 0.00016755338898618305, 0.0001233289993038272, -0.0004141222558262738, -0.0004605293355635183, -0.0005338103727237239, -0.0015396605230506696, -0.0007777453483965569, -0.002482240649601434, 0.0009529133723447387, -0.0006224483434750264, -0.0008634474891971183, 0.0013138524014292203, 0.00012605593637523177, -0.0010077251617426994, 7.975875775763826e-05, 0.0001419413963133718, -0.0007928950149104753, 0.0009350848148699842, 0.00011330566882015665, -0.0007007057438604627, 0.0017690925300974235, 0.0005426289748629089, 0.0008646130088663265, 0.00017204512162484072, 0.0018290417939838403, 0.0005448496289930546, 0.0004309795717016556, -0.0016688915739033583, -0.0004524561815361219, -0.0008655419493269206, -0.0007510256304828943, -0.0004632019217229991, 0.0013861542997330393, -0.00029405472933805455, 0.00112538560254358, -0.0006256549197655135, -0.00020011048079526483, -0.0012889773402541143, -0.0011501437804174923, 0.0004661516044494487, 0.0012111166071420692, -0.0005326907337522106, -0.0010068381374807361, -0.0001456464730371428, -0.0004917028852175202, 7.201694265332729e-05, 0.0020909107843620676, 0.0014831759582898587, 0.00018210291757962945, 0.000867756635790509, -0.0010158673425307812, 0.00015309503256639162, 0.00041546838998121274, 0.00046506739140263415, -0.0007082800692512746, -0.0006502251127646603, 0.0012192399716596297, -8.613358425753929e-05, 0.0002480735818444463, 0.0009104089434782719, -0.0007982491309489475, -5.0819451725532674e-05, 0.001380614628620561, 0.00036452835811144206, 0.0006775436113728795, -5.4267525659896e-05, 0.0002489073690984327, 0.000552124892785387, -0.0005472140783289223, -1.4669149273662554e-05, 0.0002989345243170291, -0.000822963838638021, -0.0015648209682867793, -0.0003161386751470153, -0.001377627841284722, -0.0001434287983923102, -0.000627477961992038, 0.0004571090421572918, -0.0007938877478367037, 0.0007263629845111094, 0.0012807435844628882, 0.0008405900913598924, -0.0006211365937063367, 0.0004502355063335262, -0.0010641658295867562, 0.0006145512707889417, 0.0008935485426963088, -0.0010517087678234623, -0.0002977454738555389, 0.0009515567513584146, 0.0007456515656385609, 0.0009529921506651266, -0.0010510905643471569, 0.0010162031201308523, 0.0013937073371766897, 0.001351618095694666, 0.0009449305965062698, -0.0003189758105492007, 0.00028389048175122433, -0.0007645623184981492, 1
0.8381581103105397, 0.6191868503812346, 0.4020304818368761, 0.16990241099992884, 0.0334775345217185, 5.2546231912410575e-05, 0.02163441640678439, 0.07235599666851832, 0.09724896821803025, 0.10967150998879599, 0.11459600770359349, 0.09852758577931989, 0.13738654364781877, 0.13680285443589824, 0.16589479583996938, 0.17163300053943556, 0.208123856544541, 0.2119501131512194, 0.2581890114045319, 0.26572433465886913, 0.29935129842177477, 0.31943536809631057, 0.3840658492462417, 0.40006154919637055, 0.4459207417029051, 0.4737061779198304, 0.5116942605536581, 0.512179027222723, 0.5664406542801216, 0.5767648464916054, 0.62785119354543, 0.6125748050462626, 0.6058691072080954, 0.5481415336213453, 0.5151793526079432, 0.4672135447808074, 0.42397810693692894, 0.36832233474176995, 0.36481139322636963, 0.34118184135432705, 0.3607347184796069, 0.3165616208713931, 0.30862565486467347, 0.31345728460575145, 0.33410514205279035, 0.3460247870298388, 0.33922692230291485, 0.31548860572383935, 0.3312737862386364, 0.3387620732422746, 0.3457494854902355, 0.3452663792416539, 0.3721974450971738, 0.35845008336879824, 0.36353363469947864, 0.3531453258350238, 0.3759337757041056, 0.3618317523435084, 0.3576303800841804, 0.3504187925992728, 0.3679129320725053, 0.36226318196548485, 0.35799195083384616, 0.3382297460665055, 0.3518646475136956, 0.3376536826614202, 0.346572422215716, 0.3312989638558047, 0.34827454847240746, 0.3454729850229633, 0.36398475311096246, 0.3569493439594453, 0.3704993377197515, 0.37512817233229, 0.4098109709540047, 0.3845247343575881, 0.3942800783593813, 0.3566349948111603, 0.3589319169329142, 0.33975707914091774, 0.35285002349482425, 0.311714991084987, 0.3414271587122883, 0.3000144755220695, 0.3191857986122439, 0.3118097179476798, 0.3063793787702134, 0.29711862264671257, 0.306624919242515, 0.29832802824343607, 0.31272224602190873, 0.3009658142197145, 0.32007816450975135, 0.2984857372285171, 0.3009658132777667, 0.3032701507167156, 0.32395136141914904, 0.3123770360020569, 0.3690194309155861, 0.4248216809317683, 0.5914379023969167, 0.6349098616720842, 0.5259175449416027, 0.4948761340105282, 0.7670932467156606, 0.9984701717659117, 0.9278257135419906, 0.7003287093665685, 0.49955614288174516, 0.23518669401473183, 0.14968478710807678, 0.21890199431532983, 0.2778057782027477, 0.2754693834363253, 0.27969773371847606, 0.2850715154241934, 0.3016691733663235, 0.28142265097954694, 0.3067568383316537, 0.3153048882444809, 0.34181701993217933, 0.3400290380866333, 0.36497938506715494, 0.38012231403502883, 0.41301032537061777, 0.3989501624442948, 0.0003132594257950433, -0.0005689991070104237, 0.0011817209145594967, 0.00014079968037311732, 0.00035860069624623324, 0.0028910791043057753, 0.0001344024534069833, 0.001584937978645053, 0.0015561025112483917, -0.00021706705371342196, 0.0003938882865353429, 0.0004799566460601114, -0.00185330384074489, 0.0009712732003313579, 0.0012398167731711798, -0.0003452394081368885, -0.0014269318358341263, 0.0004864768999240711, -0.00033919838685465446, -0.00031073839663063786, 0.00033451182181269944, 0.00026823393464025456, -0.0003748205912257606, 0.001264202159509313, -0.00047599612053377937, 0.0012520932079660729, 0.0008912191802902188, 0.0006596613334272235, -0.0007574281811194559, -0.0004904580716786874, -0.002200442257490241, -0.0005192379282378438, -0.0019496306341223258, 4.541140446452499e-05, -0.0006567122542760106, 0.0011141420880081058, 0.00011472345504804843, 0.0011334165968829102, -0.0003621356322959925, 0.00019693864963555237, -0.000720107891415468, 5.997950288342871e-05, 0.0005185928842036081, 8.616331105750551e-05, 0.0003703435954202304, -0.002079980588824362, 0.00020301657237404148, -0.0007394871247212027, -0.0002634004632593041, 0.0015478635499946093, -0.0003384016263741186, 0.0015752042067894842, 0.0001701635214229696, -0.0008224888466040626, 0.0018978806039063828, -0.0019160621240225364, 0.0013820551968231922, -0.00024235243609284376, -0.00030664171547818263, -0.0010500924458034671, 0.00037643242176367244, 1
0.9986598585687381, 0.9033636348231008, 0.6935380332482249, 0.5096834589577541, 0.27757511315276356, 0.11694589740376636, 0.03748608839171259, 0.02579297651717073, 0.03958024039823342, 0.0751900959689164, 0.11271753251166447, 0.13204582243883628, 0.16585915373081322, 0.18584912172912257, 0.19052496400813193, 0.19091731265234094, 0.18942744841501705, 0.1857844885685617, 0.17944887295323014, 0.1741873347727321, 0.17473514727915834, 0.17112038491943202, 0.16505086947531308, 0.15894763307056728, 0.1622583705083001, 0.16324348978400077, 0.16693328213305716, 0.17759461653797579, 0.1884884881287344, 0.20326398934109435, 0.21503801174872456, 0.22297719646954062, 0.24577535601061617, 0.25664470854829535, 0.27447449569584165, 0.2888017873474665, 0.3026623936831199, 0.31752283960218264, 0.3330752929834152, 0.3452784429071715, 0.36233521537219326, 0.36956429176657124, 0.3694527264028545, 0.3726774086739376, 0.368486208005851, 0.36565257637913345, 0.3603965754246479, 0.35557490981538337, 0.35241092994114936, 0.3592138061868396, 0.3559429167443464, 0.3604167258792537, 0.3500535085491274, 0.3486998901413362, 0.35628564260734535, 0.3605926847911897, 0.3600060696038712, 0.35635937193515294, 0.3558421139890288, 0.3599011596801362, 0.3617231659745226, 0.3418163069772063, 0.31003455752985093, 0.29329748794258853, 0.2745113748913759, 0.27044758519815904, 0.2710267968859397, 0.2662450606267914, 0.2674725748439216, 0.26599336619089003, 0.26694808980851975, 0.2704201444010038, 0.2681167740682367, 0.2744781912331174, 0.2641269830396315, 0.27219855414989663, 0.2749079230874386, 0.27887932548703315, 0.2763496696434653, 0.27656658962577124, 0.282863950753986, 0.27356417351620066, 0.26522254714564825, 0.28139896134155207, 0.4179555089353816, 0.5761848435877311, 0.6965191846965093, 0.85797914563451, 0.97743800974732, 0.9801263336470815, 0.8688600145741057, 0.655705210551044, 0.4756271439445846, 0.2439946596377492, 0.08099493056468982, 0.008287331798540387, 0.0004556722056918014, 0.014913249549481804, 0.058628117390487254, 0.0952721065731816, 0.1088456921016528, 0.14559034531330234, 0.15665730572690892, 0.17035275368037675, 0.16944720852304232, 0.16349079615879344, 0.1547252009476387, -0.0004195035196066005, 0.0018729751848594893, 0.001036152685647586, -0.002167344748449666, -0.0013998559292239024, -0.0006215159972898998, 0.0006705044040015589, 0.00027403978613891537, 0.0002418450493875529, -0.0021313245324590677, 0.0010946155437982752, 0.00038233912584904563, -0.00044641316061515556, -0.0002708189827704703, -0.0007070741577586947, -0.0015848492499132495, -0.0004927807180501032, 0.0006843651048726166, 0.0007034053763393122, -0.0007537687320343493, -0.0017934199929203493, 0.00022439467881987124, -0.0003350973283156356, 0.0016169404376460677, 0.00010859225703526767, -0.0006960714164554922, 0.00025735360230541647, 0.0006020675236685064, -0.0012067582850077477, 0.0002657385286633047, 0.0005941282022595796, 0.000872767390514141, 1.7378105798828254e-05, -0.0008412947253406098, 0.0012917477510819523, 0.0009742295636266205, 0.0011442610466270953, -0.0005735507821988963, -0.0010685451994176035, -0.000772005554845308, -0.00039850802963344067, 0.0008819065885517647, -6.417173706050736e-05, 0.0009485765292890491, -7.900697918371019e-08, 0.0012127811119496032, 1.9965006980308407e-05, 0.002240413793456345, -0.0021612021979255385, -0.0005050257249494543, -0.001113418340359482, -0.00021646696808224025, 0.0015035620834969452, -0.000703394601742667, 0.0006088576274525874, -1.0741398751289908e-05, -0.0007214578585334347, 0.00042350703275600336, -0.0006589592379112956, -0.0006108766602614717, 0.00028011909789038087, -0.0012760999594988868, 0.0002775689168886653, 0.0005347797918318699, -0.00045746277885154907, 0.0002114784334097403, -0.001261154220798965, -0.00020073304679804052, 0.0005782084879743108, -0.0006854017309060964, -0.00012117287583447379, -0.0012796303418019278, 0.00198407161601236, -0.0006259164333223613, 0.000936901656669088, -0.0009530086750752462, 0.00041773162891038554, 0.0014591002407594704, -0.00022264434291131678, 0.001038376032691687, 1
0.825727722024221, 0.7951634313005352, 0.5767370643646483, 0.36521615314765343, 0.15081880879145204, 0.08822705129133997, 0.07253317825316354, 0.05548878585771062, 0.04310314047169726, 0.022046914697106502, 0.019631993400969074, 0.014172689879264209, -0.0005354466708861187, 0.007080041067275363, 0.01476573653979266, 0.015854868355208798, 0.028004948789395974, 0.035396431122173, 0.05155956826783722, 0.06440602896053095, 0.06298811167460651, 0.07744675708924047, 0.09009353396172888, 0.09643435460004718, 0.0977706128003649, 0.11337256178750182, 0.1344217427263563, 0.16457604137412857, 0.18181859537327189, 0.20363190257989555, 0.21904067701749075, 0.21237623936650366, 0.21304940062677935, 0.20936197475760104, 0.20717295947459471, 0.20485428828501082, 0.20740568554355682, 0.2119592649469557, 0.21399188455026505, 0.20763966707147782, 0.21029569492974734, 0.2088208753297908, 0.19880595263977685, 0.19648457600843808, 0.1985276102891904, 0.21436295681283693, 0.21870506253415356, 0.21631533628884997, 0.21788902512522781, 0.22022506957128699, 0.22129735378440743, 0.2223165731013874, 0.2225080906168539, 0.22134451295737725, 0.21603898751892, 0.22525471823115714, 0.21149000004591573, 0.2240211062154248, 0.22398236289120377, 0.23001654060571042, 0.228151694376107, 0.22464056599651416, 0.23563901627556627, 0.24236710903006303, 0.24407411938461698, 0.2483054922480083, 0.2602901245540689, 0.2634970282264312, 0.31662432643309035, 0.452396835854362, 0.6213090179639965, 0.7685921915635174, 0.9279720722736716, 0.9999897068289565, 0.9983579637535352, 0.8824623170294331, 0.6576742096827028, 0.4376823158707009, 0.24222860026399018, 0.19293016402573884, 0.1741151390820247, 0.15372006275076483, 0.13656918205328428, 0.1470856566019037, 0.13329142844530537, 0.13660246109467739, 0.14132338301767325, 0.14674414874591837, 0.1487295065869495, 0.17507196749383816, 0.18151812312547747, 0.1904543147607905, 0.22298005821552233, 0.24836602320590653, -0.0007867542118257612, -0.0002653558404925367, 0.0012286753153449167, 1.3626794536234555e-05, 0.0009573377948096469, 0.0016272627746291965, 0.001307897210929753, 0.0003486765325202563, 0.001231212980298028, 0.0005497581206974946, 0.0008734717329933721, 0.0006383092375562962, 0.0004786174193935631, 0.0005473975139071189, 0.000325193261184897, 0.0013654980626987595, -0.0011626873734182786, 0.000971962042340992, 1.6466671093257555e-05, 4.764078488281537e-05, -0.0001368747141132525, 6.911545209038634e-05, 0.0011164362413482007, -0.0007585445122873745, -1.4708538730371896e-05, 0.001527531571036428, -0.00040967890118313996, 0.001710354133632055, 0.0012305438063558117, 0.00017605546268967636, -0.0015563020599574024, -0.00010295584083637867, 0.001334047085455934, 0.0017722271056405563, 0.0012183886812653158, -0.0011913561497907037, 0.0006149639459162526, 0.0011013196720770896, 5.951736114173315e-05, 0.00039150708416882694, 0.0013118335848191457, -0.0008595635928753164, 0.00026714086012801186, 0.000733772863570935, -0.0005438923464781582, -0.0005086166534758598, 0.0006232116394262879, -0.0013176150286516608, 0.001630532933611193, -0.0008256162295627439, 0.00042998727693238046, -7.299976127973367e-05, 0.00032525662753635475, 0.0011220952869213322, -0.0004143178529269619, 0.0009165545590085084, -0.0006433137496827989, 0.0007448860235625327, -0.00014403893266113588, 0.00043651293661949936, 0.00017085946366331693, -0.0006706672493412662, -0.00010066604761445375, 8.858357384585845e-05, -0.0005756181281521673, 0.001716293970694963, 0.0013204101639027956, -0.0008703023335869469, 0.002327211833255263, -0.0015422106592512847, -0.0008717460407303523, -0.000670273455981742, 1.2072484744714745e-05, 0.0005896898644415442, -0.00023605650356894753, -0.0010123241334724145, -0.0008931068139229883, 0.0005540563289726882, -0.0007842011433984294, 0.0002585183383403455, 0.0020053292236817677, -0.0007731537642290902, 0.0006443590203860398, 0.000850958809177624, 0.0018721626314580741, 0.0014304565876357114, -0.0011033277447780633, -0.0008290695680261161, 0.0004923042222229106, -0.00040783693410012957, -0.0005084231995322691, -0.0007338679981512545, 0.0012915040389430532, 1
0.05655730629785645, 0.11537341121582727, 0.27796827118874223, 0.4321504341383797, 0.5287054141297363, 0.5947076220619192, 0.6983826657400535, 0.7668294047934611, 0.7955857613155092, 0.7628237241536197, 0.7873176723361788, 0.7858342793655172, 0.8103706195278667, 0.808278859887358, 0.8164030236696602, 0.8346603954975909, 0.8413978834883515, 0.8579821071266995, 0.8705769189297298, 0.8868377459123222, 0.9012347392402134, 0.9228330626921188, 0.9337362238360604, 0.9437198034864049, 0.9585753407190434, 0.9730502322818101, 0.9760551279514068, 0.9841281301527247, 1.0011628118302984, 0.9972524948672226, 0.9875139570450522, 1.000153045235467, 0.9794192754197627, 0.9717839950933406, 0.9608973929986017, 0.947195608103706, 0.9249694787899398, 0.9136448134190003, 0.8976022297810125, 0.8901988307556513, 0.8792250661980239, 0.8669604317281289, 0.8534327155590932, 0.86058191612394, 0.8487725810360949, 0.8461588816760566, 0.8201091039851065, 0.8232109045233837, 0.8301246101727597, 0.8173501508467071, 0.8189829536939935, 0.8119588316634502, 0.7956199353208265, 0.7847305134046878, 0.7825364870272974, 0.7720176377592541, 0.7622339774562722, 0.7872477202687986, 0.7752472764650892, 0.7668620343221496, 0.7677791651722039, 0.7472797741698077, 0.74427842485061, 0.7278759918456328, 0.7150770479583733, 0.7392544272176254, 0.7122632820354917, 0.7099326616677033, 0.714024786004029, 0.7243047168862665, 0.7072899796809697, 0.7065046144682245, 0.7167916711870678, 0.7148533903292232, 0.7142023549381328, 0.7118902651971349, 0.714889598671591, 0.7201567599252436, 0.7108760255160969, 0.7088314638030394, 0.7121278954371878, 0.7243106467634047, 0.7293392833988195, 0.6998286745002357, 0.6548739548973044, 0.6233070278720043, 0.49802068171454944, 0.41897643604162954, 0.14817993494824605, -0.0006220319779755655, 0.08000387690444263, 0.20082598815958552, 0.3618617754882527, 0.4697688673887388, 0.52334424334229, 0.6188938586751441, 0.7029520568474134, 0.7155982967044021, 0.716308478072274, 0.7182201005270733, 0.7297820737272731, 0.7289971716408734, 0.7422140782707766, 0.7453704974354988, 0.7554855422753548, 0.7570746767160252, 0.7733092670499001, -0.0011321485315473317, -0.0027762484867751274, -0.0005767859009108975, 0.0011277246437956454, 0.0016040360623914246, -0.00022275910750971695, -0.0007768191086274849, -6.731637289718423e-05, 0.0008817189216612668, 0.0001416579018833284, -0.0002733498365807436, 0.0007040346134692396, -0.0019460421848105651, -0.00022593065315392022, 3.01123668818532e-05, 0.0021679000023331193, 0.0006294731517255463, -0.0014240558584547973, -0.00010781539858321495, 0.0005383475307610004, -7.997647491896888e-06, -0.001721675143100516, -0.0012009813817380891, 0.0019166256472093028, 0.0008892585526735805, 6.606101669399688e-05, -9.480287361928995e-05, -0.00028552692419499704, 0.000519902392689929, -0.00086221634042908, 0.0005998057909175509, -7.937465269920939e-06, 0.0007348974754646495, 0.0007979951431924788, -0.0021439250504496953, 0.00012497536411565157, 0.00028181691224876947, 0.0014527698661180057, 0.0007620427592226876, -0.0008619236007527615, -0.0006221645801804871, 0.0002615660524612667, -0.0007664668218392072, -0.0008969067268647571, 0.0009908051914619804, 0.0008303730508217068, 0.0006664397983440323, 0.0010276341009050152, 0.0003853690211405777, -0.0005694607417386971, 0.00026803487684507274, -0.001132859838554894, 0.0006278965214515818, -0.0006807953144745489, 0.0003829226306488254, -0.0004149570316329649, 0.00011914307745988957, 0.00020140481586580048, -0.00026008759398630084, 0.0014459098972134312, 0.0012054521178658027, -0.00021056183885117988, 0.00013605060717376686, -0.0021831385256297626, 0.001237984394172783, 0.00011602567608092036, -0.0016820145496589348, -0.0002639375576455711, 0.0013733936391902267, 0.0014912851724074134, 0.0002124249888336487, 0.00045834663009165614, 0.0005825338442359115, -0.0007406254555760045, 0.0008258911210555166, -0.00025505993341019064, 0.001980801258625517, 0.0021979805218629227, -0.0023041714572491685, -0.0005999855070364091, 1
0.9888042298675913, 0.9850948159450849, 0.5944404856590748, 0.08041659704802816, 0.007424100927609433, 0.18363876351852834, 0.26505715161255045, 0.2510437617179639, 0.23541367348917805, 0.2411859311072041, 0.2442796107855051, 0.24949774244361353, 0.2437485571956494, 0.24254021841310502, 0.25283186894536636, 0.2501888407126957, 0.2481045739201956, 0.2516473258263223, 0.25422731149008554, 0.25944955823515226, 0.26212049719662056, 0.2623084993965615, 0.26805094444673794, 0.2806021171508015, 0.28136487305597446, 0.2773797796849152, 0.2929343220783319, 0.3058254182649255, 0.29864115432721755, 0.30204908264355085, 0.30861426203751213, 0.32049344997804036, 0.30805759643301356, 0.2940657099949651, 0.29376902589106, 0.29120047210869904, 0.2764942970948768, 0.2618575434081904, 0.262455147124657, 0.25806139683313545, 0.2522083216800553, 0.24481342671862213, 0.2529364109333278, 0.25185870926461146, 0.25055957543733437, 0.2437957220537817, 0.2600100883791796, 0.2577718710113462, 0.2540622148548844, 0.2579492195041771, 0.26192929006552557, 0.2639810040561949, 0.25655959880338397, 0.26178592726946764, 0.2618719648246204, 0.2669777407116574, 0.26418856631804616, 0.2647767273490387, 0.2603048522922998, 0.2657430130904464, 0.26190239163101203, 0.24641154731230924, 0.2550641362608971, 0.2596734196840906, 0.24895466663508092, 0.24365159666663203, 0.2553270013012435, 0.2587640270112067, 0.24959570027410166, 0.24842666392492727, 0.25673689390976573, 0.25713116502281735, 0.25158530977439114, 0.2533007823150883, 0.2507875654612181, 0.25665110614060155, 0.2509055518132423, 0.25193722815110475, 0.2538464476693439, 0.25884669410464844, 0.2595421068986202, 0.25933600540028123, 0.2672641274838143, 0.2811705579917271, 0.2830281844742989, 0.2896215108063553, 0.3177953971035031, 0.3162082510220792, 0.305775443548507, 0.2937941568636129, 0.29077175275157996, 0.2795857655275369, 0.2671085493749938, 0.24594080800855095, 0.2442458024058942, 0.2556519329413893, 0.27061972108213006, 0.279447997381368, 0.29140824767719103, 0.32543476608251026, 0.34560520637786774, 0.38004663623290624, 0.43980882154386064, 0.4949456542806745, 0.5210071404587022, 0.6228455603609825, 0.8276849287393198, 0.9988675540064942, 0.8749670571213174, 0.42808075830271497, 0.0006144956649742768, 0.05866480629268975, 0.23965477754150946, 0.2760614545527646, 0.24567920926353917, 0.25203066363791043, 0.2599729570434375, 0.25775815013147707, 0.26093843085812257, 0.2719995110953389, 0.2653552284109852, 0.25546778597322395, 0.27035492482603807, 0.2706742673840786, 0.267072822849477, 0.2621134446534414, 0.2747725398018875, 0.27798177102498445, 0.27658362825471433, -0.0011378534894512329, 0.0017415329917098103, 6.029170262040934e-05, 1.4902128446198961e-05, 0.00030847622963853276, 0.00022877905181923103, -0.0007683944204918155, -0.0016445646373770793, -0.0005967347889247916, -0.0008207939687344425, 4.6680308568866897e-05, 0.0006411390495550779, 0.0010470926643292781, 9.715547161554054e-05, 0.00046695377502138836, -0.0005222528009291141, -0.00014468189980059966, -5.702312856414259e-05, 0.0006924757568268241, 0.00015166461680884017, 0.0007772332786907649, 0.0014699192246902663, -0.0023682553687575983, -0.0002873497714880882, -0.0007420433879852265, 0.000771893550819288, -0.0007360656046978077, -0.0003819429367776615, 0.0005429759775858019, -0.001990014645369878, 0.0005375999000726041, 0.0001580074255811469, -0.001257056475031749, -0.00019109016292243906, -0.00046608427423794075, 0.00029467250736576886, -9.720396571369719e-05, 0.00025209683441665035, -0.0016290624363168467, 0.0021242480638166104, -0.001486631486770459, 0.0004864631478698331, -0.00010864502938865969, -0.0011218819717976787, -0.001193365804928723, 0.0020883746895639897, -0.0012638515095374648, 0.0010917989967387323, -0.0008387590485758505, -0.0005953477813653517, 6.287337444978153e-05, 0.00024811576361651207, 0.00047262417096160505, 0.0015793910616590193, -0.00041918915359500844, 0.0015264630660260386, -0.00013098083215355944, -0.0006569332551740806, 1
0.05655730629785645, 0.11537341121582727, 0.27796827118874223, 0.4321504341383797, 0.5287054141297363, 0.5947076220619192, 0.6983826657400535, 0.7668294047934611, 0.7955857613155092, 0.7628237241536197, 0.7873176723361788, 0.7858342793655172, 0.8103706195278667, 0.808278859887358, 0.8164030236696602, 0.8346603954975909, 0.8413978834883515, 0.8579821071266995, 0.8705769189297298, 0.8868377459123222, 0.9012347392402134, 0.9228330626921188, 0.9337362238360604, 0.9437198034864049, 0.9585753407190434, 0.9730502322818101, 0.9760551279514068, 0.9841281301527247, 1.0011628118302984, 0.9972524948672226, 0.9875139570450522, 1.000153045235467, 0.9794192754197627, 0.9717839950933406, 0.9608973929986017, 0.947195608103706, 0.9249694787899398, 0.9136448134190003, 0.8976022297810125, 0.8901988307556513, 0.8792250661980239, 0.8669604317281289, 0.8534327155590932, 0.86058191612394, 0.8487725810360949, 0.8461588816760566, 0.8201091039851065, 0.8232109045233837, 0.8301246101727597, 0.8173501508467071, 0.8189829536939935, 0.8119588316634502, 0.7956199353208265, 0.7847305134046878, 0.7825364870272974, 0.7720176377592541, 0.7622339774562722, 0.7872477202687986, 0.7752472764650892, 0.7668620343221496, 0.7677791651722039, 0.7472797741698077, 0.74427842485061, 0.7278759918456328, 0.7150770479583733, 0.7392544272176254, 0.7122632820354917, 0.7099326616677033, 0.714024786004029, 0.7243047168862665, 0.7072899796809697, 0.7065046144682245, 0.7167916711870678, 0.7148533903292232, 0.7142023549381328, 0.7118902651971349, 0.714889598671591, 0.7201567599252436, 0.7108760255160969, 0.7088314638030394, 0.7121278954371878, 0.7243106467634047, 0.7293392833988195, 0.6998286745002357, 0.6548739548973044, 0.6233070278720043, 0.49802068171454944, 0.41897643604162954, 0.14817993494824605, -0.0006220319779755655, 0.08000387690444263, 0.20082598815958552, 0.3618617754882527, 0.4697688673887388, 0.52334424334229, 0.6188938586751441, 0.7029520568474134, 0.7155982967044021, 0.716308478072274, 0.7182201005270733, 0.7297820737272731, 0.7289971716408734, 0.7422140782707766, 0.7453704974354988, 0.7554855422753548, 0.7570746767160252, 0.7733092670499001, -0.0011321485315473317, -0.0027762484867751274, -0.0005767859009108975, 0.0011277246437956454, 0.0016040360623914246, -0.00022275910750971695, -0.0007768191086274849, -6.731637289718423e-05, 0.0008817189216612668, 0.0001416579018833284, -0.0002733498365807436, 0.0007040346134692396, -0.0019460421848105651, -0.00022593065315392022, 3.01123668818532e-05, 0.0021679000023331193, 0.0006294731517255463, -0.0014240558584547973, -0.00010781539858321495, 0.0005383475307610004, -7.997647491896888e-06, -0.001721675143100516, -0.0012009813817380891, 0.0019166256472093028, 0.0008892585526735805, 6.606101669399688e-05, -9.480287361928995e-05, -0.00028552692419499704, 0.000519902392689929, -0.00086221634042908, 0.0005998057909175509, -7.937465269920939e-06, 0.0007348974754646495, 0.0007979951431924788, -0.0021439250504496953, 0.00012497536411565157, 0.00028181691224876947, 0.0014527698661180057, 0.0007620427592226876, -0.0008619236007527615, -0.0006221645801804871, 0.0002615660524612667, -0.0007664668218392072, -0.0008969067268647571, 0.0009908051914619804, 0.0008303730508217068, 0.0006664397983440323, 0.0010276341009050152, 0.0003853690211405777, -0.0005694607417386971, 0.00026803487684507274, -0.001132859838554894, 0.0006278965214515818, -0.0006807953144745489, 0.0003829226306488254, -0.0004149570316329649, 0.00011914307745988957, 0.00020140481586580048, -0.00026008759398630084, 0.0014459098972134312, 0.0012054521178658027, -0.00021056183885117988, 0.00013605060717376686, -0.0021831385256297626, 0.001237984394172783, 0.00011602567608092036, -0.0016820145496589348, -0.0002639375576455711, 0.0013733936391902267, 0.0014912851724074134, 0.0002124249888336487, 0.00045834663009165614, 0.0005825338442359115, -0.0007406254555760045, 0.0008258911210555166, -0.00025505993341019064, 0.001980801258625517, 0.0021979805218629227, -0.0023041714572491685, -0.0005999855070364091, 1
1.0001516423189363, 0.8480164589931972, 0.427940780142393, 0.21070338607810837, 0.13008598628590146, 0.12353295087683265, 0.11143172900978, 0.14632157426215822, 0.23102243807139644, 0.3732135042084949, 0.42226382139162477, 0.44054403622148086, 0.4797342822660248, 0.4770854596709805, 0.47224038953039027, 0.4731156693392255, 0.4712053271211756, 0.4574505582935856, 0.4340336570024608, 0.4298051516990956, 0.4317429372377122, 0.40958619698797255, 0.3926418805194964, 0.37055939961234646, 0.37270493271867344, 0.36362624073796934, 0.339368940003882, 0.3443865424336741, 0.350326475899306, 0.3623032453201271, 0.3317275007254719, 0.3723675863247347, 0.38695854180675077, 0.41300066698299226, 0.424734296059136, 0.43977425028294853, 0.4611342809005834, 0.48718831534366686, 0.4762557346062805, 0.4948851386360418, 0.5075477161616785, 0.47833673877784993, 0.487381268290083, 0.5005711695833552, 0.5157835290496801, 0.5029792119658124, 0.4982542197201739, 0.4752356552338866, 0.4662298250097568, 0.48887939920254353, 0.4726329059369326, 0.46717626901352555, 0.4720681229941464, 0.46419651698103237, 0.47107338786269704, 0.4625216973078691, 0.4419852644912431, 0.44937692084255443, 0.4609143940225402, 0.46101197645729636, 0.44748390171744923, 0.442681843212818, 0.4492515166501204, 0.46937188595577145, 0.4763974591353116, 0.45393766013116477, 0.47389156783472963, 0.5038031240502993, 0.5104471412142408, 0.5051205349871711, 0.509836640915259, 0.5417632896500412, 0.5397703355488532, 0.515020145974133, 0.4947323146561851, 0.5423352442394834, 0.5658365908342636, 0.49586060948772204, 0.412246865787039, 0.4436179669510444, 0.44230352771053943, 0.42166708200557684, 0.41619775617889193, 0.456923647944703, 0.4403217222705803, 0.43567899879819305, 0.41569329485592565, 0.42363116751801794, 0.43718508683047064, 0.4086625018912541, 0.4120869005461534, 0.3874655990411188, 0.4158397550615294, 0.575133141876321, 0.6370466185014402, 0.6666061037391531, 0.9336720526027682, 0.9959601885781494, 0.5755669015629553, 0.22579809884733734, 0.12006249042761737, 0.033286319483959353, 0.0218845541919345, 0.0012107387520827939, 0.022226984889444735, 0.15570813335350078, 0.30375997825523393, 0.3769044986006043, 0.3914454477855919, 0.39723119936022644, 0.37440843026037535, 0.4201367044698842, 0.42410540738358704, 0.388825139930304, 0.38019880130842826, 0.3935382516921104, 0.3737916912060463, -0.0022388297638407566, -0.0012115153139880656, -0.0011431210632068737, 0.0010301078300048359, -8.35413744020262e-06, -0.0005995728695926464, 0.0017499347212647698, -0.0013426677604917799, -4.1824909386980695e-05, 0.0007019891613940651, 0.00010045016805579864, 0.0006843162547239386, 0.0006235531342262549, -0.0009309240177128727, 0.00025420170729634146, -0.0004000610526318833, 0.0002750612331982223, -0.0005055212795433653, 0.00017482197497692528, 0.0007758866260388845, 0.0001263432958676378, -0.000969669606794514, -8.524461784230761e-05, -0.0007769599886674782, 0.0012509854490318332, 0.001037061196064466, 0.0011322160636802704, 0.0007640392070716627, -0.0007662292335445705, 0.001335625490808504, -0.0013518012101538918, 0.0006290610715663312, 0.0003606647618061921, -0.0015478073509879408, -0.0014524169976883384, 7.237777063126596e-05, 0.0004531921346555884, 0.0008443462748004725, -0.000725341257744557, -0.0010954349950028268, 0.0014146894454265344, 0.00023562002226261316, -0.0004599505969272495, -2.547556644318824e-05, -0.000712737930508421, 0.0003566872014544048, -0.0009183389521314644, -0.0010721244205930674, 0.00015164937350222935, -0.00019481801348833006, 0.00014012349533063388, -7.145554840810021e-05, 0.0012839423990863605, 0.0004088697476190601, 0.0017911832173569538, 0.0010253005555605455, -0.0016517555848410284, -0.0007211313984691452, -0.0004280521929990124, 0.0015102754174083832, 0.001262937641078445, -0.0010206420399369732, -2.6617250940354314e-05, 0.0008708290833120197, -0.0001850651687644209, -0.0011426981861022763, -0.0012079592646114697, -0.0007657478409962712, 0.0003134237854310933, -0.0003244043546295659, 1
1.0008192413647594, 0.963063202176307, 0.6403831790517128, 0.2404368441192408, 0.19868920941862617, 0.24894724846896737, 0.22503642282999567, 0.20802742314742492, 0.20181620749166554, 0.19794162242406022, 0.20227253672939582, 0.2016864721366971, 0.19228745629903135, 0.18764291576297895, 0.1916611685595008, 0.190714244628476, 0.1802110100309992, 0.18234014387465208, 0.18976221944918034, 0.1790722104458178, 0.174230311218698, 0.18802444947789662, 0.20394797548256252, 0.20323092654264532, 0.19616200903690326, 0.1887049682496775, 0.1825558736680507, 0.17035073186770214, 0.1579378661036019, 0.1416633281521794, 0.1292995223052225, 0.11490070519446695, 0.09540719980369876, 0.0807316524652958, 0.06569534237095842, 0.04777897959902028, 0.026281969586155616, 0.017128193955925724, 0.014712314037288928, 0.009141792606026222, 0.0007673960653911654, 0.01879133722645295, 0.045120538287417106, 0.0724904834051088, 0.09809276975692158, 0.12916442307371867, 0.1553419009905701, 0.17663474800607826, 0.18596589708213385, 0.2019464133886537, 0.213999210092878, 0.21798903107895412, 0.21738056241056353, 0.22280915363859347, 0.23347411598817078, 0.0013416163780970913, -0.0006975944552020335, -0.0006409129165451712, 0.00220305983755598, 0.0013781043895996939, 0.0016075115911418272, 0.0001469854976626024, -0.00018316659077973613, -0.000339922139846179, 0.000678085156347084, -0.0014816749375020078, 0.00029363788578868835, 0.0019270129560271024, 0.00015072329571813112, -9.757422970087597e-05, 0.001550916896616113, -0.0010255006986710517, -0.0013052513530668545, 0.00043704050410381986, -0.000616757662760959, -0.000694001129339723, -0.0009368584047971619, -0.0007335329056883332, 0.0011177109493881341, -0.00010816025573944508, -0.0009472706878265512, -0.0012707451641991606, 7.902932843176623e-05, -0.0005497475791394209, -0.0010732137131952717, -0.0016672235334154427, -0.0005475487674068244, 0.000632237521804549, 0.0002076539682604257, -0.0024277177549305662, 0.0018447626262712634, 0.0011267207318160085, 0.000335923269758395, 0.0017100344788384108, -0.0007040390607557721, 2.876496818549067e-05, -0.00065608930784202, 0.0005135600001715648, -0.00010152671064374807, 0.0006176187786924283, 0.0011936570554155453, -0.0005343030902674444, 0.0011614158203671493, 0.000610052598409777, 3.295772205681325e-05, 0.0017587817169099468, 0.0006808614765360839, -0.00043482423165388195, -6.977198914172744e-05, 0.002072776318815519, -0.0006167962071167472, 0.001209328830927379, -0.0006731493080332327, 0.0007300742968102971, 0.001229791819596771, -0.0008188679297116299, -0.0017794684090376757, 0.00041482870454573854, -0.0003077869475951015, -0.0008207782475121667, 0.0005342264365690448, 0.0007329926210045113, 0.0005687371904429802, 0.0004241083831299612, -0.00017877899031421221, 0.00018588578165968004, 0.0012329264672821434, 0.0008772527651399123, 8.257930819587167e-05, 0.00046984588726718034, 0.0015941338852463501, 0.000804591988168238, -0.0006017523193334552, -0.0005462512024384283, -0.0006115836181053015, -0.001233939348706883, 0.0007154827146633186, 0.002012830977764095, -8.036318111960384e-05, 0.0008187709718785483, 0.00022979153080444561, -0.0004545143318325914, 0.0009722210515868726, 0.0003491340067086101, -0.0014342216441469318, -0.0013091138159131881, -0.0008177606706073527, -0.001678293282083461, 0.0013234637308004132, -0.00047716564750763403, 0.001388185340497403, 0.0014990143773148533, 2.4970962392126132e-05, 0.0003830012198179771, 0.0009222203170394098, 0.0011702572067637327, 0.0014832215274447045, 0.0001910268273923225, 0.0010826251269829361, -0.00013517809000265752, -0.000383779960525698, 0.00024029725505105598, -0.0009606162427695935, -0.0012884284959486256, -0.0017528399933651457, -0.0017330800085737566, -0.00017943759914315266, 0.0006211144064664899, -0.0001608393710085191, 0.0001775149168315174, -0.0010710128982856775, -0.0004834283151157581, -0.0007459292403920421, 0.0004354644056371806, -0.002806220282095728, 0.0011885173056837546, 0.0006683117678671165, 0.002572526446167692, 0.0024869451400477286, 0.00027507502802136746, -0.0008203183331666582, -0.0007718669864422243, -0.0010075154419347636, -0.0012350669402698621, -0.0008379030914659648, 0.00031196111787602424, -0.0012016978216056876, 1
0.9992977564050292, 0.9194480425184541, 0.4546841676210494, 0.1381239446806427, 0.2959195795114136, 0.3677759729871405, 0.3259492247478676, 0.3243002124822216, 0.3185060999496094, 0.31166158532597277, 0.3192490886371122, 0.32281334883229734, 0.31938303552265623, 0.3216616860332023, 0.3304862716909238, 0.329463652663511, 0.3293830377616253, 0.3280203198413553, 0.3444544517090938, 0.34826870652843556, 0.3498413749226931, 0.35314978567397814, 0.36007204591263126, 0.3642463717542719, 0.3641365137318711, 0.3676818558041041, 0.3757812001353144, 0.3779335748444305, 0.3635708021603192, 0.36519599835200206, 0.36425548204471275, 0.35923668497685823, 0.33694128272321083, 0.31612507982880095, 0.31262837791823544, 0.29746734749488063, 0.2828375708223779, 0.2749800986277169, 0.27577625984594634, 0.27806714366641444, 0.26813752144354763, 0.2637474021805799, 0.2723268106083112, 0.2764006889391488, 0.26391007659682725, 0.25591198832449075, 0.2637648126580224, 0.25968991110062767, 0.2539793693482063, 0.25323728362454306, 0.25149904167185244, 0.24466695954586945, 0.23456155126616934, 0.23398051354479768, 0.23265466546890573, 0.2298399363543153, 0.2187122625238404, 0.21428625411564206, 0.22167307209725348, 0.2278983289744223, 0.21588409731823593, 0.21140356905319693, 0.21472615513527452, 0.2149454055891719, 0.20883684414509035, 0.20578427817947986, 0.22752481719217896, 0.23499185627038072, 0.23200758218801829, 0.23180078363512793, 0.2442121965002746, 0.26299714444443056, 0.24398328466721733, 0.23062026166880104, 0.2325514878029747, 0.22887547151488288, 0.21321317881508123, 0.191823325729113, 0.18839389989671648, 0.18918811249881884, 0.18556228080299045, 0.1856436941348373, 0.19325292198084051, 0.19183627293994826, 0.25497275586836854, 0.4211988319319001, 0.6499986714129073, 0.7892240982232329, 0.5881997853434692, 0.11921832074767705, -0.0005016371009351438, 0.16838663423243344, 0.21487095148116248, 0.1907033230651015, 0.18968522208460648, 0.19789828739951146, 0.1901273315582026, 0.19288029059470158, 0.20631165521689265, 0.21152644645347934, 0.2076380181029403, 0.21121281171820702, 0.21782489205086702, 0.223782004638474, 0.22253156261822668, 0.00010428197601445091, 0.0011036105341177438, 0.0004166511755351234, 0.00012866001414867854, -5.291026613652676e-05, -0.0007927308371774616, -0.0003443036868726271, -0.00043536037158505144, 0.00041230066817219313, -0.00038913026077341757, -0.0016676594191209941, -0.001127877034485618, 0.0008281931466976792, -0.0019926710790034666, -0.0011079004456089725, 4.184990457913891e-05, -0.0016881968943799417, -0.0016301154546525965, -0.0009034051301623285, -0.0006519937609915937, 0.0018655665405486743, -0.0017879245783929715, -0.0008150407207586918, -0.00014832692736781788, 0.001720979821486109, 0.0005895694433789954, -0.0008514364711627698, -0.0005757273457048055, -0.00017157507797526257, 0.00081748456374706, -0.001753271542134592, -8.57289551025316e-05, 0.0010015474446740794, 0.0003146392369361528, -0.0003941454417008018, -0.0011971585410545406, 0.000625573691460973, -0.0003100105217406009, 0.00021855910424911979, -0.0007456076586057429, -0.00031025119769215507, 0.0003097444353453428, -0.002139252752851599, -0.0007116366555489738, -2.6333522172515225e-06, -7.449411621779061e-05, -0.0012960575410809689, 0.001474807240529726, -0.0009723972215420078, -0.00020209896012473815, -0.0002618342874884345, 0.002414616161578694, -0.0010518862587871173, -1.4432731708748364e-05, 0.000371525533525884, -0.0008848261169122142, 0.0010963155515577583, -0.001006227962774506, -1.2600135785225462e-05, -0.0005430099683858079, -0.001031444644926406, -0.0019592364971394664, -0.0008645733869929317, 0.0016380940655507088, -0.0019549940501027247, -0.0012437979821353414, -0.0008877618292563728, 0.00029585117431743134, 0.0015663058972951917, -0.000921448420410617, -0.00010403533650834197, 0.0013513382153438377, 0.001456793072493267, -0.0014018673815103494, 0.0002092096030892827, -0.0003531155396358913, -0.000785126944342764, -0.0004177234543169053, 0.0014424714196948143, 0.0013351183679952137, 0.00042970610499186164, 0.00011770098222893876, 1
0.825727722024221, 0.7951634313005352, 0.5767370643646483, 0.36521615314765343, 0.15081880879145204, 0.08822705129133997, 0.07253317825316354, 0.05548878585771062, 0.04310314047169726, 0.022046914697106502, 0.019631993400969074, 0.014172689879264209, -0.0005354466708861187, 0.007080041067275363, 0.01476573653979266, 0.015854868355208798, 0.028004948789395974, 0.035396431122173, 0.05155956826783722, 0.06440602896053095, 0.06298811167460651, 0.07744675708924047, 0.09009353396172888, 0.09643435460004718, 0.0977706128003649, 0.11337256178750182, 0.1344217427263563, 0.16457604137412857, 0.18181859537327189, 0.20363190257989555, 0.21904067701749075, 0.21237623936650366, 0.21304940062677935, 0.20936197475760104, 0.20717295947459471, 0.20485428828501082, 0.20740568554355682, 0.2119592649469557, 0.21399188455026505, 0.20763966707147782, 0.21029569492974734, 0.2088208753297908, 0.19880595263977685, 0.19648457600843808, 0.1985276102891904, 0.21436295681283693, 0.21870506253415356, 0.21631533628884997, 0.21788902512522781, 0.22022506957128699, 0.22129735378440743, 0.2223165731013874, 0.2225080906168539, 0.22134451295737725, 0.21603898751892, 0.22525471823115714, 0.21149000004591573, 0.2240211062154248, 0.22398236289120377, 0.23001654060571042, 0.228151694376107, 0.22464056599651416, 0.23563901627556627, 0.24236710903006303, 0.24407411938461698, 0.2483054922480083, 0.2602901245540689, 0.2634970282264312, 0.31662432643309035, 0.452396835854362, 0.6213090179639965, 0.7685921915635174, 0.9279720722736716, 0.9999897068289565, 0.9983579637535352, 0.8824623170294331, 0.6576742096827028, 0.4376823158707009, 0.24222860026399018, 0.19293016402573884, 0.1741151390820247, 0.15372006275076483, 0.13656918205328428, 0.1470856566019037, 0.13329142844530537, 0.13660246109467739, 0.14132338301767325, 0.14674414874591837, 0.1487295065869495, 0.17507196749383816, 0.18151812312547747, 0.1904543147607905, 0.22298005821552233, 0.24836602320590653, -0.0007867542118257612, -0.0002653558404925367, 0.0012286753153449167, 1.3626794536234555e-05, 0.0009573377948096469, 0.0016272627746291965, 0.001307897210929753, 0.0003486765325202563, 0.001231212980298028, 0.0005497581206974946, 0.0008734717329933721, 0.0006383092375562962, 0.0004786174193935631, 0.0005473975139071189, 0.000325193261184897, 0.0013654980626987595, -0.0011626873734182786, 0.000971962042340992, 1.6466671093257555e-05, 4.764078488281537e-05, -0.0001368747141132525, 6.911545209038634e-05, 0.0011164362413482007, -0.0007585445122873745, -1.4708538730371896e-05, 0.001527531571036428, -0.00040967890118313996, 0.001710354133632055, 0.0012305438063558117, 0.00017605546268967636, -0.0015563020599574024, -0.00010295584083637867, 0.001334047085455934, 0.0017722271056405563, 0.0012183886812653158, -0.0011913561497907037, 0.0006149639459162526, 0.0011013196720770896, 5.951736114173315e-05, 0.00039150708416882694, 0.0013118335848191457, -0.0008595635928753164, 0.00026714086012801186, 0.000733772863570935, -0.0005438923464781582, -0.0005086166534758598, 0.0006232116394262879, -0.0013176150286516608, 0.001630532933611193, -0.0008256162295627439, 0.00042998727693238046, -7.299976127973367e-05, 0.00032525662753635475, 0.0011220952869213322, -0.0004143178529269619, 0.0009165545590085084, -0.0006433137496827989, 0.0007448860235625327, -0.00014403893266113588, 0.00043651293661949936, 0.00017085946366331693, -0.0006706672493412662, -0.00010066604761445375, 8.858357384585845e-05, -0.0005756181281521673, 0.001716293970694963, 0.0013204101639027956, -0.0008703023335869469, 0.002327211833255263, -0.0015422106592512847, -0.0008717460407303523, -0.000670273455981742, 1.2072484744714745e-05, 0.0005896898644415442, -0.00023605650356894753, -0.0010123241334724145, -0.0008931068139229883, 0.0005540563289726882, -0.0007842011433984294, 0.0002585183383403455, 0.0020053292236817677, -0.0007731537642290902, 0.0006443590203860398, 0.000850958809177624, 0.0018721626314580741, 0.0014304565876357114, -0.0011033277447780633, -0.0008290695680261161, 0.0004923042222229106, -0.00040783693410012957, -0.0005084231995322691, -0.0007338679981512545, 0.0012915040389430532, 1
0.8381581103105397, 0.6191868503812346, 0.4020304818368761, 0.16990241099992884, 0.0334775345217185, 5.2546231912410575e-05, 0.02163441640678439, 0.07235599666851832, 0.09724896821803025, 0.10967150998879599, 0.11459600770359349, 0.09852758577931989, 0.13738654364781877, 0.13680285443589824, 0.16589479583996938, 0.17163300053943556, 0.208123856544541, 0.2119501131512194, 0.2581890114045319, 0.26572433465886913, 0.29935129842177477, 0.31943536809631057, 0.3840658492462417, 0.40006154919637055, 0.4459207417029051, 0.4737061779198304, 0.5116942605536581, 0.512179027222723, 0.5664406542801216, 0.5767648464916054, 0.62785119354543, 0.6125748050462626, 0.6058691072080954, 0.5481415336213453, 0.5151793526079432, 0.4672135447808074, 0.42397810693692894, 0.36832233474176995, 0.36481139322636963, 0.34118184135432705, 0.3607347184796069, 0.3165616208713931, 0.30862565486467347, 0.31345728460575145, 0.33410514205279035, 0.3460247870298388, 0.33922692230291485, 0.31548860572383935, 0.3312737862386364, 0.3387620732422746, 0.3457494854902355, 0.3452663792416539, 0.3721974450971738, 0.35845008336879824, 0.36353363469947864, 0.3531453258350238, 0.3759337757041056, 0.3618317523435084, 0.3576303800841804, 0.3504187925992728, 0.3679129320725053, 0.36226318196548485, 0.35799195083384616, 0.3382297460665055, 0.3518646475136956, 0.3376536826614202, 0.346572422215716, 0.3312989638558047, 0.34827454847240746, 0.3454729850229633, 0.36398475311096246, 0.3569493439594453, 0.3704993377197515, 0.37512817233229, 0.4098109709540047, 0.3845247343575881, 0.3942800783593813, 0.3566349948111603, 0.3589319169329142, 0.33975707914091774, 0.35285002349482425, 0.311714991084987, 0.3414271587122883, 0.3000144755220695, 0.3191857986122439, 0.3118097179476798, 0.3063793787702134, 0.29711862264671257, 0.306624919242515, 0.29832802824343607, 0.31272224602190873, 0.3009658142197145, 0.32007816450975135, 0.2984857372285171, 0.3009658132777667, 0.3032701507167156, 0.32395136141914904, 0.3123770360020569, 0.3690194309155861, 0.4248216809317683, 0.5914379023969167, 0.6349098616720842, 0.5259175449416027, 0.4948761340105282, 0.7670932467156606, 0.9984701717659117, 0.9278257135419906, 0.7003287093665685, 0.49955614288174516, 0.23518669401473183, 0.14968478710807678, 0.21890199431532983, 0.2778057782027477, 0.2754693834363253, 0.27969773371847606, 0.2850715154241934, 0.3016691733663235, 0.28142265097954694, 0.3067568383316537, 0.3153048882444809, 0.34181701993217933, 0.3400290380866333, 0.36497938506715494, 0.38012231403502883, 0.41301032537061777, 0.3989501624442948, 0.0003132594257950433, -0.0005689991070104237, 0.0011817209145594967, 0.00014079968037311732, 0.00035860069624623324, 0.0028910791043057753, 0.0001344024534069833, 0.001584937978645053, 0.0015561025112483917, -0.00021706705371342196, 0.0003938882865353429, 0.0004799566460601114, -0.00185330384074489, 0.0009712732003313579, 0.0012398167731711798, -0.0003452394081368885, -0.0014269318358341263, 0.0004864768999240711, -0.00033919838685465446, -0.00031073839663063786, 0.00033451182181269944, 0.00026823393464025456, -0.0003748205912257606, 0.001264202159509313, -0.00047599612053377937, 0.0012520932079660729, 0.0008912191802902188, 0.0006596613334272235, -0.0007574281811194559, -0.0004904580716786874, -0.002200442257490241, -0.0005192379282378438, -0.0019496306341223258, 4.541140446452499e-05, -0.0006567122542760106, 0.0011141420880081058, 0.00011472345504804843, 0.0011334165968829102, -0.0003621356322959925, 0.00019693864963555237, -0.000720107891415468, 5.997950288342871e-05, 0.0005185928842036081, 8.616331105750551e-05, 0.0003703435954202304, -0.002079980588824362, 0.00020301657237404148, -0.0007394871247212027, -0.0002634004632593041, 0.0015478635499946093, -0.0003384016263741186, 0.0015752042067894842, 0.0001701635214229696, -0.0008224888466040626, 0.0018978806039063828, -0.0019160621240225364, 0.0013820551968231922, -0.00024235243609284376, -0.00030664171547818263, -0.0010500924458034671, 0.00037643242176367244, 1
0.9816855992573709, 0.9703497525374548, 0.5608669297754335, 0.09611001681964644, 0.19780902281732396, 0.2277654873442887, 0.15501325519849696, 0.14752654058204473, 0.1437583457446138, 0.1458876889191513, 0.13929378754513533, 0.14775372425254052, 0.15813925247387783, 0.1531902704312921, 0.15699046580655368, 0.16793681656753148, 0.18328478868670967, 0.19002970578703732, 0.19702012407799438, 0.21100363080618986, 0.21989067756576994, 0.23192873384299503, 0.25239968467428675, 0.27894614685428915, 0.2960287534583973, 0.31757368498462574, 0.33068184396044614, 0.35133495412347165, 0.3704593781116311, 0.3823478945605688, 0.39165422900302727, 0.3867137794141773, 0.38300797783898344, 0.3495801833099444, 0.32153072034668606, 0.29276415127938715, 0.2555845808289549, 0.2224414958370901, 0.20284941317726, 0.19288007165786814, 0.18976454488629732, 0.1766467824622829, 0.17752446473047795, 0.17995461928818607, 0.17454922222068997, 0.1741434102776063, 0.16713529119883866, 0.1685631976677631, 0.17350243040868443, 0.17207165742336536, 0.16147280795106497, 0.16626885449230427, 0.1699963581601687, 0.1565808339631501, 0.14519193942233521, 0.1498273363624054, 0.15629481873787238, 0.15078373487449204, 0.13171272209817778, 0.1325898332920611, 0.1419269482239032, 0.13921248305879905, 0.1285630167978492, 0.12773171674026093, 0.12965674473728098, 0.11707132713713665, 0.11607982781610585, 0.12577049554779898, 0.12656585033821516, 0.1196298975797608, 0.126497012507315, 0.14078607120909298, 0.1452309713572234, 0.1398581634336135, 0.1402216359195389, 0.15222348991032958, 0.15981915430894558, 0.15621408974993012, 0.15186897137464828, 0.14533013268208236, 0.14423813305386074, 0.1318836791209541, 0.10175072029483634, 0.0863221240467123, 0.11039034290775031, 0.10420253696280514, 0.09486975411993977, 0.09961370425236284, 0.10170659733032032, 0.12967613925784427, 0.2559804211242597, 0.5520143106311922, 0.8730190332048886, 0.9997134510262543, 0.862842878565824, 0.3984840176451771, 0.00034136267980294517, 0.1536413354951909, 0.1640382857681159, 0.11149829743239333, 0.11431963299665848, 0.11144775108201044, 0.09718583560795381, 0.10191958950852263, 0.1170229267934412, 0.11779246556317283, 0.11970946948862822, 0.12326519549195443, 0.12981359976886397, 0.13937009342431933, 0.1430394984942102, 0.0005383001787094732, -0.0003489277330508061, 0.0010051375475873879, 0.0004385153114882362, -0.0011482948464758714, 0.0013837682405307692, 0.00014372830840732407, 0.0004480016846952603, -0.0012355608378392016, -0.0004062155829768052, 0.00039517410739602825, -0.0012072706985596885, 0.0019012086910943171, -0.00017282870771133564, 0.00033370182038563003, 0.0014060867757596845, 0.001260409567442459, 0.001016733528701545, -0.0017918764119688813, 0.00033514688340001366, 0.001131677659494671, 0.0011906569068793926, -0.001476841984650196, 0.0012234197991199966, -5.927476699378421e-05, 0.0008968212225342933, 0.0015013706397325336, -4.863809499041102e-05, -7.698033787607003e-05, -0.0020598904303014004, -1.5403281706660523e-05, 0.00048184338321317015, -0.0008940330442892215, 0.0004951434112719526, -0.0012603224315786735, -0.0002684613330384966, -0.0013727131392042128, 3.672623650068788e-05, -0.0002081798088620705, -9.526226350950631e-05, -0.00015423363932957925, 0.0016730367746882358, -0.0007936465864894366, 0.0009625189357995679, 0.0008481226084879359, 0.0004480132728721102, -0.0021191976737933308, 0.0005040134757148288, -0.000952300091703451, -0.0010372640771331354, 5.451804696093623e-05, 0.0008482447760948241, 0.00019961380442333135, 0.0033684554167018534, 0.0017927211949268396, 0.00018289504329235283, -0.000338923136171121, -0.0009075077169036997, 1.8497170464974353e-05, -0.0007525813953617961, -0.00014769249989084372, -0.00039039220586634967, -0.0001925936103971185, -0.0027077331257636898, -0.0002879123113324449, 0.000991767808894848, -0.0016529923230771378, 0.001007720637466756, -0.0006259880831525423, -8.312545019182707e-05, -0.0004172991897034633, -0.000274127137383127, -0.00032839454588678643, 0.0003295898161138049, 0.0004271815006232232, 0.00018179390758203012, 1
1.0000775208087165, 0.9344616994410649, 0.5270941032114042, 0.33527279617444683, 0.32127881046735846, 0.2888245364663987, 0.23558862089170407, 0.20223347001474082, 0.17602590397551837, 0.1312315058309853, 0.11118620706756302, 0.08558310727071675, 0.09327639167668109, 0.08347202007419752, 0.08989902778046713, 0.07657622738651326, 0.07851361477848248, 0.07532096054776456, 0.06660565855852746, 0.06501212645517224, 0.06856079005784846, 0.049773378401870516, 0.053244646831919436, 0.035610544903957306, 0.0339548536323996, 0.025695892048821927, 0.02547082928777465, 0.008401704456225394, 0.019182392271003743, 0.0008387762677835189, 0.016936374625061864, 0.0132398611639401, 0.016744492869842253, 0.047010413828344796, 0.07543470892903018, 0.09634505161415506, 0.12685881178009595, 0.13889160848611729, 0.1629815730767884, 0.15480138894453124, 0.1701897827805207, 0.16020009484939002, 0.16751455472533552, 0.1568833377030817, 0.16655086714482104, 0.15911924339149422, 0.1590805802367806, 0.15367246597489695, 0.16076102906015582, 0.14525115184936255, 0.16093002100570594, 0.14556203591506936, 0.15471125243214454, 0.14371978257184564, 0.15484509756711345, 0.14775560276904892, 0.15602692648384459, 0.15327187493949135, 0.1611375764447547, 0.14905604356744173, 0.15469971437145025, 0.15402783639796502, 0.16086000117987506, 0.15283182573598716, 0.16279104486064083, 0.14842970924950685, 0.15875912318553925, 0.15690518367481304, 0.17619733814592317, 0.17536647102161615, 0.18745918767793954, 0.17634345157343378, 0.19156087396654997, 0.18042182746374458, 0.18394600399469496, 0.18155138609743648, 0.18022546422539099, 0.16524237083671078, 0.16912388720862784, 0.14356334876060065, 0.159954431062149, 0.14784875521742724, 0.14537622695191227, 0.14602827987139747, 0.15107349387596467, 0.14880675977272, 0.15505544671361635, 0.14980654193358026, 0.15632823027404172, 0.17573913932779184, 0.2798973763130396, 0.3889788140254476, 0.5412962522455785, 0.763621427549697, 0.9854344775033228, 0.9858671428712962, 0.7447762620371545, 0.42853715168171624, 0.32466935763494487, 0.294114995914581, 0.27147554363503673, 0.22266166583923816, 0.20391784279141525, 0.1713297665084289, 0.1448952819010015, 0.118279421719975, 0.10413699219644842, 0.08956083317540728, 0.09488508020082045, 0.08404252590676467, 0.08819979332164217, 0.07455389148709, 0.08217088244893128, 0.07861062058526597, -0.0006321944080815294, 0.0007102748147001586, -0.000980318305823165, 0.0005544455671195927, 0.0005402373334342953, 0.00021712495712548547, -0.00013626177353133872, 0.0013343522160586244, -0.00036915405303094434, -0.0009969897515144975, 0.0014234353214529925, -0.00032765171207311064, -0.0005568488429162338, 0.0006791025281411555, -0.0018377530233258889, 0.001927925861710989, -0.0010562104491861418, 7.962014704845741e-05, 0.001206318664481716, -0.00043355322158463344, 0.000600208733821451, 0.001122412921415319, -0.0010517918056278603, 0.0008690566178053388, -0.0008008628953165624, -0.00039549210375741304, 0.0005232356819843976, -0.0011220820480023722, 0.0001741596453775167, 0.0001400383394094954, 0.0010881247941143533, 0.001024782848558459, -0.0009799040090863107, -0.0004791367019520145, 0.0014589258435267012, -0.0006592548016359381, -0.0011597547065839856, 0.0002641402437662431, -0.0007706712605704176, -7.54778176619572e-05, -0.0004148336817878769, 0.00019972208619983142, -0.00028175278663461896, 0.0005968141532712209, 0.0004991211633252407, 0.001271892633909851, 0.0002741452537166782, -0.0003805122579204802, -0.0009202903471424468, -0.00010086688474808088, 0.0005710079676045584, 0.00024220488653516902, 0.00040403846999332416, -0.001296142409337436, 0.0003600866615996434, -0.000519579550167745, -0.0010199204590799088, 0.0005711983281135101, 0.0009074110745020153, 0.0018003652552852124, -0.0005866840555092816, 0.0005455160216912635, 0.0006188362543525704, 0.0024558945864525503, -0.0010960432027573986, -0.0019290439209505713, -7.197899626055488e-05, 0.0014719550521879324, 0.00011436575961335931, -0.0004787751999319965, 0.0011692610849225733, -0.0004450086217290777, 0.0011442738060442241, 1
0.997695086728346, 0.9425235851745308, 0.5749882857994261, 0.26165516934145405, 0.10589903050546066, 0.12081857936572754, 0.08192422169057446, 0.08332482754190777, 0.04154596763679983, 0.0574172997382201, 0.036632296373655754, 0.05355613627325877, 0.034651944166835286, 0.057276179201084854, 0.037943817884509165, 0.05120307211359302, 0.032757658211438716, 0.05320197111728581, 0.044735052304072785, 0.050104330746392346, 0.04710329220210178, 0.06801555539107322, 0.05651590858685127, 0.07164038368233208, 0.06843618735337427, 0.09557340476009483, 0.09302786615090905, 0.11215624078809638, 0.1189700973463435, 0.1561872664098485, 0.160032751251361, 0.18835296888910819, 0.1963537466828047, 0.21138578726537294, 0.22375508317029347, 0.2371618680554693, 0.22843764778749562, 0.21472425018012373, 0.1853953230189629, 0.1595227136232669, 0.12458436630546245, 0.10783612754014305, 0.08214921317032815, 0.07462008655597636, 0.05365103906426484, 0.051187271869135936, 0.03816902758480587, 0.0405363340742058, 0.024665833738564222, 0.04240892924758101, 0.03001085370516885, 0.03868538406077305, 0.02287174560344725, 0.030263308349261123, 0.02237108686969733, 0.030477814900613024, 0.03501922337605919, 0.03858837620377732, 0.022866888945083104, 0.04217673203602838, 0.03399459356937822, 0.04314890015746184, 0.03023699507185473, 0.042578340884099355, 0.030371351554256402, 0.03463541668220809, 0.024743958195267247, 0.030612752271289612, 0.013921960250086282, 0.02492832852419237, 0.01177077264056693, 0.028411176200950888, 0.009648259347562374, 0.023661820453999134, 0.0035619726139939937, 0.021699311238072196, 0.00806841949351485, 0.020739993742394356, 0.0007305163569103152, 0.014480623379251933, 0.015879631396636555, 0.02602087298387886, 0.009465718281209462, 0.010577328302693452, 0.0003153660411589445, 0.020774706817361176, 0.007772315177278013, 0.022332816046132638, 0.006961938101106828, 0.027355359452699207, 0.012667233562744807, 0.026032055166207043, 0.007376942766722213, 0.02512330113408751, 0.016824818521933935, 0.020080147584684068, 0.004603765330475771, 0.037760204624675185, 0.023143191311269188, 0.0368405758090061, 0.022746707833175336, 0.04082444813822213, 0.024773046455354483, 0.03805997841306094, 0.01863036336250149, 0.040416440618572254, 0.02308488989334522, 0.040345152027639886, 0.028020775219333455, 0.03693379859356807, 0.02966440574115788, 0.04677125059635385, 0.030653735465790508, 0.05659521680193218, 0.05271719319418912, 0.06608442438709496, 0.07077405289085678, 0.08395192396376654, 0.07621204169585627, 0.08177203251127343, 0.07295690874448008, 0.07400037218100433, 0.06251285294652155, 0.06386722253663094, 0.03724156701677346, 0.04981605003947963, 0.032908378305003615, 0.030540746180270965, 0.037091747275324945, 0.0440166605166871, 0.03780122701000418, 0.05326050776256792, 0.04646188925881169, 0.06780654292973455, 0.06708941551385653, 0.10666640000689487, 0.1420305209039453, 0.3278001482700227, 0.5761257286192547, 0.840194252934912, 0.940968660585537, 0.6827215973729386, 0.28192691444827206, 0.11830656470833348, 0.09806411865394829, 0.07875737488085804, 0.04053276322812121, 0.046347333363040776, 0.03138819419687656, 0.03661705222282035, 0.020752543043341277, 0.03442497102350317, 0.02352954787401349, 0.035397385874418444, 0.02244648089745743, 0.03475890888457353, 0.026803150169365332, 0.040953029618959566, 0.03950517105481449, 0.049796193094850116, 0.05425430922331776, 0.06920756875550182, 0.0717597701688921, 0.09729397927444414, 0.1004527330045628, 0.1269331675504399, -0.0008757616308572588, -0.0012761950845417251, -0.0003800530751315535, -0.0004257850376860232, 0.0013618537490397429, 0.00016946995712606075, -0.001391822176358872, 0.0008902802081565203, -0.0008840820961617218, -0.00031417562443384717, 0.0026609254916062112, 0.00072102038178437, -0.0010444649093425094, 0.0005683186790842676, -0.0014511381364172035, -0.0009783808764147073, -0.0011013315925404697, 0.0016174526624790687, 0.0002812517328760218, -4.5994471009764334e-05, -0.0002248018978346028, 1
0.8381581103105397, 0.6191868503812346, 0.4020304818368761, 0.16990241099992884, 0.0334775345217185, 5.2546231912410575e-05, 0.02163441640678439, 0.07235599666851832, 0.09724896821803025, 0.10967150998879599, 0.11459600770359349, 0.09852758577931989, 0.13738654364781877, 0.13680285443589824, 0.16589479583996938, 0.17163300053943556, 0.208123856544541, 0.2119501131512194, 0.2581890114045319, 0.26572433465886913, 0.29935129842177477, 0.31943536809631057, 0.3840658492462417, 0.40006154919637055, 0.4459207417029051, 0.4737061779198304, 0.5116942605536581, 0.512179027222723, 0.5664406542801216, 0.5767648464916054, 0.62785119354543, 0.6125748050462626, 0.6058691072080954, 0.5481415336213453, 0.5151793526079432, 0.4672135447808074, 0.42397810693692894, 0.36832233474176995, 0.36481139322636963, 0.34118184135432705, 0.3607347184796069, 0.3165616208713931, 0.30862565486467347, 0.31345728460575145, 0.33410514205279035, 0.3460247870298388, 0.33922692230291485, 0.31548860572383935, 0.3312737862386364, 0.3387620732422746, 0.3457494854902355, 0.3452663792416539, 0.3721974450971738, 0.35845008336879824, 0.36353363469947864, 0.3531453258350238, 0.3759337757041056, 0.3618317523435084, 0.3576303800841804, 0.3504187925992728, 0.3679129320725053, 0.36226318196548485, 0.35799195083384616, 0.3382297460665055, 0.3518646475136956, 0.3376536826614202, 0.346572422215716, 0.3312989638558047, 0.34827454847240746, 0.3454729850229633, 0.36398475311096246, 0.3569493439594453, 0.3704993377197515, 0.37512817233229, 0.4098109709540047, 0.3845247343575881, 0.3942800783593813, 0.3566349948111603, 0.3589319169329142, 0.33975707914091774, 0.35285002349482425, 0.311714991084987, 0.3414271587122883, 0.3000144755220695, 0.3191857986122439, 0.3118097179476798, 0.3063793787702134, 0.29711862264671257, 0.306624919242515, 0.29832802824343607, 0.31272224602190873, 0.3009658142197145, 0.32007816450975135, 0.2984857372285171, 0.3009658132777667, 0.3032701507167156, 0.32395136141914904, 0.3123770360020569, 0.3690194309155861, 0.4248216809317683, 0.5914379023969167, 0.6349098616720842, 0.5259175449416027, 0.4948761340105282, 0.7670932467156606, 0.9984701717659117, 0.9278257135419906, 0.7003287093665685, 0.49955614288174516, 0.23518669401473183, 0.14968478710807678, 0.21890199431532983, 0.2778057782027477, 0.2754693834363253, 0.27969773371847606, 0.2850715154241934, 0.3016691733663235, 0.28142265097954694, 0.3067568383316537, 0.3153048882444809, 0.34181701993217933, 0.3400290380866333, 0.36497938506715494, 0.38012231403502883, 0.41301032537061777, 0.3989501624442948, 0.0003132594257950433, -0.0005689991070104237, 0.0011817209145594967, 0.00014079968037311732, 0.00035860069624623324, 0.0028910791043057753, 0.0001344024534069833, 0.001584937978645053, 0.0015561025112483917, -0.00021706705371342196, 0.0003938882865353429, 0.0004799566460601114, -0.00185330384074489, 0.0009712732003313579, 0.0012398167731711798, -0.0003452394081368885, -0.0014269318358341263, 0.0004864768999240711, -0.00033919838685465446, -0.00031073839663063786, 0.00033451182181269944, 0.00026823393464025456, -0.0003748205912257606, 0.001264202159509313, -0.00047599612053377937, 0.0012520932079660729, 0.0008912191802902188, 0.0006596613334272235, -0.0007574281811194559, -0.0004904580716786874, -0.002200442257490241, -0.0005192379282378438, -0.0019496306341223258, 4.541140446452499e-05, -0.0006567122542760106, 0.0011141420880081058, 0.00011472345504804843, 0.0011334165968829102, -0.0003621356322959925, 0.00019693864963555237, -0.000720107891415468, 5.997950288342871e-05, 0.0005185928842036081, 8.616331105750551e-05, 0.0003703435954202304, -0.002079980588824362, 0.00020301657237404148, -0.0007394871247212027, -0.0002634004632593041, 0.0015478635499946093, -0.0003384016263741186, 0.0015752042067894842, 0.0001701635214229696, -0.0008224888466040626, 0.0018978806039063828, -0.0019160621240225364, 0.0013820551968231922, -0.00024235243609284376, -0.00030664171547818263, -0.0010500924458034671, 0.00037643242176367244, 1
1.0000775208087165, 0.9344616994410649, 0.5270941032114042, 0.33527279617444683, 0.32127881046735846, 0.2888245364663987, 0.23558862089170407, 0.20223347001474082, 0.17602590397551837, 0.1312315058309853, 0.11118620706756302, 0.08558310727071675, 0.09327639167668109, 0.08347202007419752, 0.08989902778046713, 0.07657622738651326, 0.07851361477848248, 0.07532096054776456, 0.06660565855852746, 0.06501212645517224, 0.06856079005784846, 0.049773378401870516, 0.053244646831919436, 0.035610544903957306, 0.0339548536323996, 0.025695892048821927, 0.02547082928777465, 0.008401704456225394, 0.019182392271003743, 0.0008387762677835189, 0.016936374625061864, 0.0132398611639401, 0.016744492869842253, 0.047010413828344796, 0.07543470892903018, 0.09634505161415506, 0.12685881178009595, 0.13889160848611729, 0.1629815730767884, 0.15480138894453124, 0.1701897827805207, 0.16020009484939002, 0.16751455472533552, 0.1568833377030817, 0.16655086714482104, 0.15911924339149422, 0.1590805802367806, 0.15367246597489695, 0.16076102906015582, 0.14525115184936255, 0.16093002100570594, 0.14556203591506936, 0.15471125243214454, 0.14371978257184564, 0.15484509756711345, 0.14775560276904892, 0.15602692648384459, 0.15327187493949135, 0.1611375764447547, 0.14905604356744173, 0.15469971437145025, 0.15402783639796502, 0.16086000117987506, 0.15283182573598716, 0.16279104486064083, 0.14842970924950685, 0.15875912318553925, 0.15690518367481304, 0.17619733814592317, 0.17536647102161615, 0.18745918767793954, 0.17634345157343378, 0.19156087396654997, 0.18042182746374458, 0.18394600399469496, 0.18155138609743648, 0.18022546422539099, 0.16524237083671078, 0.16912388720862784, 0.14356334876060065, 0.159954431062149, 0.14784875521742724, 0.14537622695191227, 0.14602827987139747, 0.15107349387596467, 0.14880675977272, 0.15505544671361635, 0.14980654193358026, 0.15632823027404172, 0.17573913932779184, 0.2798973763130396, 0.3889788140254476, 0.5412962522455785, 0.763621427549697, 0.9854344775033228, 0.9858671428712962, 0.7447762620371545, 0.42853715168171624, 0.32466935763494487, 0.294114995914581, 0.27147554363503673, 0.22266166583923816, 0.20391784279141525, 0.1713297665084289, 0.1448952819010015, 0.118279421719975, 0.10413699219644842, 0.08956083317540728, 0.09488508020082045, 0.08404252590676467, 0.08819979332164217, 0.07455389148709, 0.08217088244893128, 0.07861062058526597, -0.0006321944080815294, 0.0007102748147001586, -0.000980318305823165, 0.0005544455671195927, 0.0005402373334342953, 0.00021712495712548547, -0.00013626177353133872, 0.0013343522160586244, -0.00036915405303094434, -0.0009969897515144975, 0.0014234353214529925, -0.00032765171207311064, -0.0005568488429162338, 0.0006791025281411555, -0.0018377530233258889, 0.001927925861710989, -0.0010562104491861418, 7.962014704845741e-05, 0.001206318664481716, -0.00043355322158463344, 0.000600208733821451, 0.001122412921415319, -0.0010517918056278603, 0.0008690566178053388, -0.0008008628953165624, -0.00039549210375741304, 0.0005232356819843976, -0.0011220820480023722, 0.0001741596453775167, 0.0001400383394094954, 0.0010881247941143533, 0.001024782848558459, -0.0009799040090863107, -0.0004791367019520145, 0.0014589258435267012, -0.0006592548016359381, -0.0011597547065839856, 0.0002641402437662431, -0.0007706712605704176, -7.54778176619572e-05, -0.0004148336817878769, 0.00019972208619983142, -0.00028175278663461896, 0.0005968141532712209, 0.0004991211633252407, 0.001271892633909851, 0.0002741452537166782, -0.0003805122579204802, -0.0009202903471424468, -0.00010086688474808088, 0.0005710079676045584, 0.00024220488653516902, 0.00040403846999332416, -0.001296142409337436, 0.0003600866615996434, -0.000519579550167745, -0.0010199204590799088, 0.0005711983281135101, 0.0009074110745020153, 0.0018003652552852124, -0.0005866840555092816, 0.0005455160216912635, 0.0006188362543525704, 0.0024558945864525503, -0.0010960432027573986, -0.0019290439209505713, -7.197899626055488e-05, 0.0014719550521879324, 0.00011436575961335931, -0.0004787751999319965, 0.0011692610849225733, -0.0004450086217290777, 0.0011442738060442241, 1
1.0005173673646712, 0.8242040810018576, 0.656230749707876, 0.4348906932868344, 0.3137461944751787, 0.19128395678274826, 0.08715113429127637, 0.06534241440816833, 0.04304150324199131, 0.022484849117174088, 0.04047488471328396, 0.030768833600225278, 0.0452545469000928, 0.04014958254078795, 0.04207686931024808, 0.046987627969651724, 0.0467539930070878, 0.051088527762851034, 0.04711809115075176, 0.05210549823431584, 0.054286031208292895, 0.06275956767533514, 0.06221709911967651, 0.06053302286204796, 0.07303790525224632, 0.08503266125225532, 0.09701429732877283, 0.1193203451417142, 0.1411498104992649, 0.15026582299621277, 0.18487465574518833, 0.20555391298347944, 0.23467500804069627, 0.2576989732019424, 0.27917756634436797, 0.27550608340912314, 0.2873133062435676, 0.2870707022984329, 0.26688025080201727, 0.2511688196315807, 0.23521802432664568, 0.2081799078689541, 0.19741948764352318, 0.1824307261426124, 0.1681758107691057, 0.15276258487113467, 0.148352959722991, 0.1281657232741435, 0.1296743464817886, 0.11686499994956925, 0.10770584517167867, 0.10846989126944953, 0.1166626330645203, 0.10725118740028505, 0.1113314512857881, 0.10256509862973905, 0.11402403325631531, 0.1013610551598468, 0.11499933121513266, 0.1146782250696105, 0.12027882323224832, 0.11743279204949096, 0.11096776919173602, 0.11794833131405516, 0.12567529394602261, 0.11943681094946501, 0.13389214163607407, 0.14586030198057937, 0.16064151008430827, 0.16845707770714347, 0.18663846446911936, 0.18867045884227468, 0.22911156131229532, 0.24457633525744893, 0.24553831039566534, 0.24847628053348061, 0.2272724409883415, 0.192975874762847, 0.1258862386687932, 0.09182523816438197, 0.10023321602732396, 0.10705402000537734, 0.09577832148171352, 0.10342089838858859, 0.10743447947241186, 0.12333593256968854, 0.13349181582661238, 0.11864882604032384, 0.10212791208356374, 0.15483640387176686, 0.3954761327721163, 0.686411414922554, 0.9172508683380448, 0.9138390775982543, 0.7508257617808854, 0.5079686805012532, 0.3790237756288267, 0.23180271571155767, 0.142491447457885, 0.0550158575535834, 0.021594857083627662, 0.011539849336538078, 7.251885093742371e-05, 0.007544642550624735, 0.01638744160328777, 0.026082614362382642, 0.022075967299099213, 0.031197658068389065, 0.02804826006190777, 0.0213448374507557, -0.00033648899762760815, 0.0014672789217080237, -0.001303242610265395, -0.00047221980440066464, -0.00044966112774300895, -0.0004815562805640041, 0.0009568270399239613, -0.00020562328791460721, 0.0025451701420469946, -0.001093376382199442, -0.000504585905044723, 0.00036565178850996006, -0.001136848872199318, -8.525227454682858e-05, 0.00036615402534382496, 0.0017154545382136461, 0.00016229724149524944, -0.002207393406886316, -0.0002526185188098388, 0.00015949715762596212, 0.0002935609032919146, -0.0013076418779819448, 0.0007543951316990917, 0.0016354731210294596, 0.000737034665409405, 0.001914154775802629, 0.0021460387372828397, -0.0008938133844671936, 0.0031369027470741747, 0.0012089956321460172, -0.00045379806482129844, 0.0008535378012117383, -0.001791130498744949, 0.0005617261211330191, 0.00031403596745106126, 0.0016995996730276312, 0.00013475006909295924, -0.0008020267908003746, -0.0015309457926738837, -0.001011666391680308, -0.000775240061911067, -0.0009666630391645754, 2.1627917166151655e-05, -0.0010211140436920767, 0.0002012557296182844, 0.0010691876250950119, -0.0014239269071597486, -0.0003931286791945885, 0.0005538556920988431, 0.0015655036018773901, -0.00015901558373140504, 0.00036880803507127285, -0.0003368712721148517, -0.00026709207340904726, 0.0003955566425617807, 0.0003259683497640799, 0.0018576835275319606, -0.00027083547239546045, -0.0021339247701480353, -0.0006313984890864423, -0.0011127766066368428, -0.0006132874517837154, 0.0006819702560108765, 0.00013800506951757067, 0.0006513705252389626, 0.0010918611976637115, -9.90041609693992e-05, -0.0015282749976082365, -0.0009603227356328504, 0.002936360036889992, 0.0005470138833070185, 0.000724933850193042, 0.00024845280373075103, 0.00027202743089436206, 0.0020231180144844353, -0.0007019296517637901, -0.00031792690525106167, 1
0.0011368149247448808, 0.22232195214224784, 0.37828774571611673, 0.48203727511103006, 0.5098979397502911, 0.5152540184281376, 0.5383560797979429, 0.5419599132388699, 0.5355810035767312, 0.5488854821071504, 0.5682393852383418, 0.5620002597310614, 0.5583901549759942, 0.5697790672898425, 0.583374558225337, 0.5783022355014021, 0.5723134348583416, 0.588631170814316, 0.6120147256255711, 0.6000589150213492, 0.6157874338942759, 0.6327135544309819, 0.6584719916519204, 0.6734927640204323, 0.6728186370961169, 0.7140655615084667, 0.7475396346865535, 0.7684132388901797, 0.7853366420719026, 0.8116633290295716, 0.8426561008865743, 0.8643613769136852, 0.8778668185987806, 0.8925360023713774, 0.8916937172870045, 0.8787578714910405, 0.8568340711659475, 0.8277117648234981, 0.7891555197648046, 0.7404524851003758, 0.6945894429571045, 0.657278144630692, 0.6339785842606334, 0.5908144082621808, 0.5679726109238541, 0.5633074226593582, 0.5625548063153648, 0.5631422813054826, 0.5523144709846839, 0.5528047352120866, 0.5526494299988494, 0.5528916592113725, 0.5513527282181376, 0.5543855199648745, 0.5626104837785596, 0.5635151227594867, 0.5544616682420938, 0.5625151189127632, 0.5756302202948554, 0.5504271776685976, 0.5462569640226749, 0.5518271091768878, 0.5529654804518832, 0.5416442417817348, 0.5250267230860787, 0.5344649529822292, 0.5417508733183825, 0.5381707929710083, 0.5188322507796247, 0.5268129480677789, 0.5355804036657021, 0.5267360240891781, 0.502893016830256, 0.5127339782768128, 0.5262886185323975, 0.5210593207958204, 0.5100597915434665, 0.5030894929039066, 0.5171344728731073, 0.5127831299117346, 0.5089476292562366, 0.5033540393583275, 0.514660271429238, 0.5133825358678544, 0.5036321054448504, 0.5092434027999829, 0.5275905173852744, 0.5201880448942913, 0.5119240098246115, 0.51087067414502, 0.5212346545397577, 0.5177951718313679, 0.5070742899509708, 0.5069395778030025, 0.5238575097014634, 0.5212594665227916, 0.501240065569271, 0.5129351447337701, 0.521655927734448, 0.5206914709354441, 0.5087907545873925, 0.5193642042019753, 0.5331684993052848, 0.5241269796261125, 0.5087183164099155, 0.5196170203513066, 0.5330286560513493, 0.5254510328146534, 0.5098997536980411, 0.5242179533039271, 0.5294645131682381, 0.5245787258136888, 0.5197148204795569, 0.5183312732939448, 0.5351821901083099, 0.5509680631148743, 0.5650436948168189, 0.5795971722230315, 0.6049740678868437, 0.6197309418225645, 0.6191295093643675, 0.6136357800866562, 0.5981266889847717, 0.5869929862128476, 0.5452787744457956, 0.5226902675564884, 0.5306256967469749, 0.5250280752927367, 0.5088057005668868, 0.5074830376912839, 0.506357837285878, 0.5035813008340763, 0.5053163791922508, 0.5061103358680401, 0.5149377338903579, 0.5155818075338344, 0.5243732804930626, 0.6474775346749664, 0.8734460988251423, 1.0009368070042728, 0.7126357183016718, 0.2783011166129912, 0.09189559097901988, 0.24317233268563515, 0.38919288556761084, 0.49519008513606416, 0.5519527645588987, 0.5431258235678932, 0.5362889444896692, 0.5461298800639205, 0.5701314656191006, 0.5713994536056297, 0.5673639076821351, 0.565488183874032, 0.5948838282728991, 0.5959036292308789, 0.5884583693162336, 0.6029606163895325, 0.6090726660730151, 0.615640646784105, 0.6006990396538376, 0.6275850240341712, 0.648053052481873, 0.6399594625966052, 0.6475665015019705, 0.6620274669282671, 0.6839799357905852, 0.7090095389742893, 0.7096523635494535, 0.7405142080303102, 0.7861334776282263, 0.0017343110589083377, 0.0012912174338985376, 0.00010808240110472813, -0.001217197745137519, 0.000360992952183979, 0.0003099774031860472, -0.0024317622803920903, -0.00091998742918792, -0.00035716806165778336, -0.001468049854787764, 0.0020893753728278676, -0.0007104190743519222, -0.00020270550426916835, 0.0013695162947550841, -0.00037291220237329725, -0.0012635358583103962, 1
1.0000775208087165, 0.9344616994410649, 0.5270941032114042, 0.33527279617444683, 0.32127881046735846, 0.2888245364663987, 0.23558862089170407, 0.20223347001474082, 0.17602590397551837, 0.1312315058309853, 0.11118620706756302, 0.08558310727071675, 0.09327639167668109, 0.08347202007419752, 0.08989902778046713, 0.07657622738651326, 0.07851361477848248, 0.07532096054776456, 0.06660565855852746, 0.06501212645517224, 0.06856079005784846, 0.049773378401870516, 0.053244646831919436, 0.035610544903957306, 0.0339548536323996, 0.025695892048821927, 0.02547082928777465, 0.008401704456225394, 0.019182392271003743, 0.0008387762677835189, 0.016936374625061864, 0.0132398611639401, 0.016744492869842253, 0.047010413828344796, 0.07543470892903018, 0.09634505161415506, 0.12685881178009595, 0.13889160848611729, 0.1629815730767884, 0.15480138894453124, 0.1701897827805207, 0.16020009484939002, 0.16751455472533552, 0.1568833377030817, 0.16655086714482104, 0.15911924339149422, 0.1590805802367806, 0.15367246597489695, 0.16076102906015582, 0.14525115184936255, 0.16093002100570594, 0.14556203591506936, 0.15471125243214454, 0.14371978257184564, 0.15484509756711345, 0.14775560276904892, 0.15602692648384459, 0.15327187493949135, 0.1611375764447547, 0.14905604356744173, 0.15469971437145025, 0.15402783639796502, 0.16086000117987506, 0.15283182573598716, 0.16279104486064083, 0.14842970924950685, 0.15875912318553925, 0.15690518367481304, 0.17619733814592317, 0.17536647102161615, 0.18745918767793954, 0.17634345157343378, 0.19156087396654997, 0.18042182746374458, 0.18394600399469496, 0.18155138609743648, 0.18022546422539099, 0.16524237083671078, 0.16912388720862784, 0.14356334876060065, 0.159954431062149, 0.14784875521742724, 0.14537622695191227, 0.14602827987139747, 0.15107349387596467, 0.14880675977272, 0.15505544671361635, 0.14980654193358026, 0.15632823027404172, 0.17573913932779184, 0.2798973763130396, 0.3889788140254476, 0.5412962522455785, 0.763621427549697, 0.9854344775033228, 0.9858671428712962, 0.7447762620371545, 0.42853715168171624, 0.32466935763494487, 0.294114995914581, 0.27147554363503673, 0.22266166583923816, 0.20391784279141525, 0.1713297665084289, 0.1448952819010015, 0.118279421719975, 0.10413699219644842, 0.08956083317540728, 0.09488508020082045, 0.08404252590676467, 0.08819979332164217, 0.07455389148709, 0.08217088244893128, 0.07861062058526597, -0.0006321944080815294, 0.0007102748147001586, -0.000980318305823165, 0.0005544455671195927, 0.0005402373334342953, 0.00021712495712548547, -0.00013626177353133872, 0.0013343522160586244, -0.00036915405303094434, -0.0009969897515144975, 0.0014234353214529925, -0.00032765171207311064, -0.0005568488429162338, 0.0006791025281411555, -0.0018377530233258889, 0.001927925861710989, -0.0010562104491861418, 7.962014704845741e-05, 0.001206318664481716, -0.00043355322158463344, 0.000600208733821451, 0.001122412921415319, -0.0010517918056278603, 0.0008690566178053388, -0.0008008628953165624, -0.00039549210375741304, 0.0005232356819843976, -0.0011220820480023722, 0.0001741596453775167, 0.0001400383394094954, 0.0010881247941143533, 0.001024782848558459, -0.0009799040090863107, -0.0004791367019520145, 0.0014589258435267012, -0.0006592548016359381, -0.0011597547065839856, 0.0002641402437662431, -0.0007706712605704176, -7.54778176619572e-05, -0.0004148336817878769, 0.00019972208619983142, -0.00028175278663461896, 0.0005968141532712209, 0.0004991211633252407, 0.001271892633909851, 0.0002741452537166782, -0.0003805122579204802, -0.0009202903471424468, -0.00010086688474808088, 0.0005710079676045584, 0.00024220488653516902, 0.00040403846999332416, -0.001296142409337436, 0.0003600866615996434, -0.000519579550167745, -0.0010199204590799088, 0.0005711983281135101, 0.0009074110745020153, 0.0018003652552852124, -0.0005866840555092816, 0.0005455160216912635, 0.0006188362543525704, 0.0024558945864525503, -0.0010960432027573986, -0.0019290439209505713, -7.197899626055488e-05, 0.0014719550521879324, 0.00011436575961335931, -0.0004787751999319965, 0.0011692610849225733, -0.0004450086217290777, 0.0011442738060442241, 1
0.9493008886813633, 0.9194330816093892, 0.5512257233198187, 0.27060345021090243, 0.1319769106906161, 0.12240845992300133, 0.06724488670090809, 0.05337832684954032, 0.017441145461005822, 0.023538036021659322, 0.011957721165500158, 0.012166817390900643, -0.0003768532177843304, 0.01460745944046075, 0.011236079795728425, 0.02103491033796688, 0.018831011507856436, 0.026999361662240224, 0.01814042491894155, 0.035438933136006455, 0.042548093482865604, 0.059150859655967544, 0.05381065094389109, 0.07027169100868987, 0.07137658528358104, 0.09049174607794759, 0.08077545809636129, 0.09766412835005919, 0.10496864788006399, 0.10952999088065137, 0.10397942120368256, 0.11140873241980041, 0.09753227556194172, 0.08829350930934866, 0.07742640011133808, 0.08012233027070867, 0.07767323858149619, 0.07897287165466536, 0.08002391510580649, 0.08347068012831199, 0.0710594320034268, 0.08171777198502142, 0.07406615149521806, 0.07410196732472789, 0.06650608559329738, 0.10140325588182318, 0.10885160483453399, 0.12736672127059956, 0.13533562273416777, 0.21524503574899895, 0.4133427892003268, 0.6555270270139586, 0.8910028767432696, 0.9992691143836177, 0.8073797122158818, 0.40444211529211865, 0.1842564341948605, 0.12764912385505867, 0.06821591749492015, 0.062224702813763896, 0.03737277238706134, 0.046148175372173195, 0.0250561073263379, 0.016301001610734247, -0.00016962541254605048, 0.0007820938300085469, 0.00015127541260413242, -0.0007576504302841713, -0.0004414031387473386, 0.001486514059907991, 3.0316571667494484e-06, 0.00048167779775981146, -0.0003637240827034838, 0.00010225044407022028, 0.0008088183750681225, 0.0009277373547539409, -0.0027729225747842204, -0.00010962309328230986, 0.0011231322449717321, -0.0007265805685274682, -0.0015001922524973752, 0.0007951545866409119, 0.0008626977994514027, 0.0018225858048939786, -0.0015201627297787123, -0.0005623914259775941, -0.00046465933903393387, 0.0004519389449131122, 0.0024011972563412693, 0.0013437845450452056, 0.0003238938953369342, -0.00012668537397311612, -0.0002004762875142361, -0.0015071753144634994, -0.0009597702539990461, -0.0016824087686817281, -0.0009237280147513532, -0.0008111048616549517, 0.0007415357066859459, 0.0016847298348138793, -0.0011281579927158601, -0.0004024764900421803, 0.00084732851499593, -0.00033326361955772824, -0.0008007810852908283, -0.0014373684874046124, 0.0013207122841021011, -0.0010665201845952393, 0.0011265989324157196, -0.0013696827804046928, 0.0004496221680505598, -0.0011770443232753678, 0.0008117349534334553, -0.00032946741375040607, 0.002229521995502607, 0.0010128135292768003, 0.0004671298895103684, -0.001126813118917743, -0.00019610367404041099, -0.0010558629050145482, 0.00038396122050862486, -0.0002247168567227326, 0.0004089801272130816, 0.0009120582449665372, -0.0023105533472967755, -0.0015837687964471527, 0.00032675070837476553, -0.0012438234422155118, 0.0003060935594350963, -0.0008503257553745874, -0.0004773791060069302, 8.245543456060371e-05, 0.0015931907738915626, 0.0006410541082442811, 0.00012297109599238975, 0.001622779955004655, -0.0025890364118456256, 0.0012833059382220712, 0.00035951803255354224, 0.0003353092108581732, 0.0005724083465847137, 0.0003739999138407385, -0.000841293080390501, 0.0014871285721685533, 0.0011748407839647296, 0.0007473780973731784, 0.0008255131167276518, 0.0009625980800820176, -9.349828455001756e-05, -0.0005920218940051544, -0.0009243076978201425, 0.0003939249579219119, 0.000252553132354749, -0.0021798844155326126, -0.0009427294944903943, -0.00033051440884764645, -0.0014450997985218943, -0.002138312165865396, -0.00019810297814624233, 2.5108526332535014e-05, -0.0006615500627904012, 0.0006833052228449539, -0.000650983095940587, 0.0008682195480235827, 0.00018316294657409027, 9.35127775849685e-05, 3.45466303267762e-05, 0.0009764868412384543, 0.0017939713003166146, 0.0013045647407592235, -0.000629025112987959, -0.002576414599504264, -0.0009367960669797292, -0.0005955758305362176, -0.002614495874824765, 0.0007733705724184274, -0.001715884022944557, 0.00018602566345965002, 0.0009756890958472046, 0.0007568806680614946, 0.001059646019327737, -0.0004414287342968377, 0.0004056350835943009, -5.649503318162207e-05, -0.0006121539026901398, 0.00041618734158214304, 0.00013975963319334676, 1
