0.9996283792534628, 0.8961051950777951, 0.5832772011347049, 0.313543624688327, 0.2284792800100551, 0.17824999143767348, 0.12190167562411797, 0.11478977632423684, 0.10738422302498672, 0.10151736997483105, 0.11389231795309925, 0.10613958141464756, 0.09335347555693006, 0.09061869719696895, 0.10274276325747592, 0.09039542965819382, 0.07907706413412299, 0.08402901998870076, 0.07735213834969677, 0.05920345373084782, 0.047726565781130034, 0.03900872849676472, 0.03313744498581228, 0.016083147949107427, 0.0012588399419117277, 0.0035026443160780405, 0.0183156839868789, 0.029933557114951624, 0.039449882199319775, 0.06277611301951432, 0.10708159483586983, 0.12371736897689087, 0.14160879084193, 0.16052895250958224, 0.17013371408844216, 0.17194886748919744, 0.16856397013767643, 0.16624461399340967, 0.1837132375264995, 0.17254798571529914, 0.17006158615219535, 0.1701415737760357, 0.1751014721556721, 0.17570721354341948, 0.1677561994052594, 0.16574328344237782, 0.1733229234650242, 0.16137506984999334, 0.16229899232102488, 0.18495354789834492, 0.2074391612049763, 0.22627802289277932, 0.22963085956499968, 0.25661654931103073, 0.29258307623015267, 0.3053694540336003, 0.275363072303442, 0.2783727423989369, 0.2807743905176398, 0.23724930126514884, 0.2054548640667793, 0.18984770363065423, 0.17617173508632494, 0.153965437966626, 0.15754253811769392, 0.16381786615997804, 0.16382510628131747, 0.15953492580690323, 0.17285612135550757, 0.281104939056655, 0.5389159932657142, 0.7706398282514526, 0.9249113041364484, 0.9147491129779944, 0.7354029945591963, 0.4045047240076485, 0.23800452460634264, 0.21160567172558692, 0.15176473795784193, 0.09427919697532067, 0.08634247631141964, 0.08963281267579881, 0.0003603477365659361, 0.002192391555762062, -0.0002739854061290311, -0.0007734953805065309, 0.0003857432977554103, -0.0007477486052260035, 0.0002706118440919097, -0.0002395255452559641, 0.0014219941136816793, -0.0014952335940615839, 0.0005709397693918508, 0.0006398083485162112, -0.0003862682697587817, -0.0005354455823494908, -4.976673242127405e-05, -0.0003960873835565363, 0.0005999086976421267, -0.00014102550729551357, 0.00019196641961153927, 0.0007020513601361325, -0.0013530691452500727, -0.0005307317883040697, 0.00023010564355104368, 0.0007318438783236112, 0.0023566217837262243, 0.0008791812505896004, -0.0013080511804410043, -0.0006126101846019747, 0.0009501411706684706, 0.0009317007774727137, -0.000726440364168987, -0.00013095150722741003, 0.0002527710183376624, -0.00027027808232943417, 0.0014638219968365633, 0.001410061213245144, 0.0003793237700808725, 4.733683119156741e-05, 0.0009769589789667575, 0.0005417906547795044, -0.0005728619378156316, 0.000867764607613472, -0.00022138140892422284, 0.0014833942114080246, 0.0007355603157250492, -0.0005476143660495587, 0.00043781504195605585, -1.2156602234414103e-05, -0.0010810988014780154, -0.0004922732817050707, -0.0011132423354745864, 0.001347610074207727, 0.0003244272691382064, 0.0010968867437486684, -0.0015598892068678994, -0.0001314739122775072, -0.00020541343967512863, 2.94308515697147e-05, 0.001272399432236383, -0.0015896829773681732, 4.432309261267791e-05, -0.00042961240737869475, -0.001344001911136047, -0.0007858608140975774, 0.0012262681274642698, 0.0011805099596426823, -0.002418751141752267, 0.0010074042219171409, -0.0022610033179447067, 0.0008986834827793365, 0.00045586961875901334, -0.000740503728897206, -0.00012949279291521302, 0.00033584882765849174, 0.0003459249033275689, -0.0026458344744713664, 0.0008379027399222571, 0.00026612986061611357, 8.127470631680234e-05, 0.00018022812559044895, 0.00014009953873595814, 0.000692082473683622, -0.0029003249253712524, -0.00032446198341756186, 0.0004730396921284065, 0.0008772127430519142, -0.0008613841499875625, -0.00025612103192395957, -0.00015830777604019066, -0.00025982398661992173, 0.0013337643931265058, -0.0008490864505381907, -0.0001198096575010153, -0.0003151534228867434, 0.0014237040383193746, 0.0007134708009910434, -0.00047024899651429755, 0.0009503048355932835, -7.598172545978597e-05, 0.002588063320885418, 0.0008778587012181224, 0.0013421463187740755, 0.00012857657956255402, 0.00021035029866311823, -0.00011007390245494145, 1
0.9915245623938864, 1.0008423631313708, 0.7243441755862395, 0.4430181658913566, 0.1805019925393817, 0.07308396790056793, 0.15646629243317003, 0.22962166572618406, 0.29102783525098896, 0.3253536320259881, 0.3166385153569846, 0.3292446275063952, 0.30886100796628185, 0.31630601918711326, 0.3093697485555808, 0.309815754704925, 0.29205039910104424, 0.3094192655802618, 0.2832343334810684, 0.287626326724998, 0.2910399516904983, 0.3037216269286191, 0.29208930277307094, 0.29739774977077216, 0.2883411853720529, 0.3148172149393586, 0.30166981960004663, 0.30229164634687844, 0.30793015790294787, 0.31219853666831027, 0.3156247800205806, 0.34670376887247, 0.34522041169500617, 0.3567714246287107, 0.356571943711671, 0.38432255603718757, 0.3888112669900746, 0.4110614807205715, 0.4005810974184936, 0.42811728981571584, 0.4071131052836002, 0.43638606932661317, 0.4113849985289172, 0.42813534245545637, 0.4031166349138529, 0.4181457325943536, 0.40084420004394483, 0.4037239200294948, 0.3999942836343437, 0.3946612251875722, 0.3912581775162488, 0.3918215840921582, 0.3605058399113711, 0.36562708573607233, 0.3441513835922291, 0.33657100421388264, 0.31737714045836235, 0.3217180062515436, 0.3004695495085381, 0.2990472218424105, 0.28902154096221094, 0.29525305265213136, 0.29195577384821736, 0.30698833787168933, 0.2830131336673566, 0.32383583184976134, 0.30973942794875653, 0.3177032291566134, 0.3079080236852918, 0.3238467470927445, 0.31283661802463, 0.331360442533266, 0.3212267606211275, 0.3312847474150337, 0.32852117634144196, 0.3373795884252407, 0.3302477429329709, 0.32939145962186633, 0.32462234609145146, 0.3489451490076695, 0.3358114872984399, 0.33293288239754393, 0.32045306780265176, 0.3530558177071758, 0.3208515615132341, 0.34686182548447436, 0.3373900712325272, 0.34216943533153776, 0.3251256441384106, 0.34538746234573386, 0.33341950122509983, 0.344230647199781, 0.3298209072151713, 0.35751283027577474, 0.3534278457286112, 0.3548882373120658, 0.34656110073142704, 0.3838744030155915, 0.40087289978449314, 0.41424504760727554, 0.44314501751577523, 0.49170787235132324, 0.4939540219119194, 0.5188054808521573, 0.5273214079286075, 0.4970159757787501, 0.3876815437269513, 0.3199281903779337, 0.30020561983206306, 0.32106892208575716, 0.3041168887716122, 0.3331443905864713, 0.3029396276843195, 0.3209539045770693, 0.316445789061273, 0.32170976739737966, 0.3138027528058876, 0.32515760805035343, 0.32617206126344006, 0.34083690510772596, 0.3487957666538768, 0.5197487029443548, 0.7784774050068456, 0.8074375856790077, 0.8719654086770571, 0.9461659902919745, 0.9915460361662449, 0.8393306221681733, 0.40371962286227225, 0.10724962820831951, -0.0004888362128290864, 0.13268482869011172, 0.19334756292257926, 0.23760446428699625, 0.23409501458891835, 0.2583078186338451, 0.23100296464866923, 0.23399096932183502, 0.21505198889019936, 0.23808838039107685, 0.20596094662727973, 0.23118460995118167, 0.213102415877255, 0.24287578016112046, 0.22237567532476732, 0.2252353895821062, 0.2093146274508225, 0.23487592929789833, 0.22265989311008982, 0.0002708408302824429, 0.0019990265215403804, -0.0008017052209179968, 0.0005159027417562044, -0.0003957950096432142, 0.00014538661679158754, -0.0012312599605973648, -0.002768317164415549, -0.000231119846143684, -0.0011129312355511697, 0.000485791134601478, 0.00014069503627892527, 0.00033120520961346195, -0.0012837913241307156, -0.0011893833898355254, 0.00040693547639174325, -0.0007182815479290993, -0.0001756880635750595, -0.0001744598155595789, 0.0009337650048332619, -0.00027946677483910897, 6.052686406754679e-05, -0.00025293161422223446, 0.0019517780831860064, -0.0021000687722582587, 0.0010604321030319075, 0.001087882310604377, 0.0008922943778797327, -0.0019113439576203563, -0.0013129740155963644, 0.0020124088755304795, -0.00012011659955559788, -0.0004972659277444206, 0.00029955697920024343, 0.0007316654917278901, -0.001074989732163786, 0.0002913180495871838, 0.001824176082560781, 1
0.9994507317535797, 0.7323390103436752, 0.10754485482401246, 0.019214513159841972, 0.09416093353020519, 0.0875893679496373, 0.0823180133115403, 0.07402285570717133, 0.05965015684956548, 0.05447211908881798, 0.054530960624198606, 0.048010836803853575, 0.0440607855335994, 0.05127272376125065, 0.05283058533211283, 0.05389916889424028, 0.054538906096643275, 0.06189110699917429, 0.06323257737490483, 0.07443673287625652, 0.07166963968885354, 0.08740357962249856, 0.1031371424956376, 0.11719845903773564, 0.1379485894619423, 0.16363804895714645, 0.1840443756539944, 0.20816439682617635, 0.22824287043183106, 0.24227547366642158, 0.2573324793791154, 0.2672814221247383, 0.26643658735963255, 0.2667009617181611, 0.2528935554373951, 0.22717952725086912, 0.19919548053753325, 0.1688320993343799, 0.13808493541171932, 0.12434813082289943, 0.1113003385844433, 0.10491504128383418, 0.105088242723434, 0.09719168117474342, 0.10379471070511934, 0.10369795884359201, 0.10947180393588973, 0.11114938856345984, 0.11452386782417984, 0.11282887786410274, 0.11975809291734753, 0.12244859633432185, 0.11742999856101217, 0.11378403145602556, 0.12171997430749298, 0.11358463355680605, 0.11225902131260034, 0.10869524575009638, 0.10707692235914282, 0.10127229254094777, 0.10314145562134208, 0.09732364023246046, 0.09377929365011185, 0.08927525708977503, 0.08786225645904595, 0.08342604896039146, 0.08029301923998781, 0.07306397200774635, 0.07725313508697647, 0.07208861048745524, 0.07048288389609039, 0.07098820499464907, 0.07473549123265537, 0.07200348078290068, 0.0725915864461537, 0.06953715271921042, 0.07170841657264337, 0.07191995704948559, 0.07118858519341026, 0.07543003237429358, 0.08371225551198183, 0.09958403853365219, 0.11138466469221012, 0.1157723221574764, 0.12617882721686027, 0.12453325315698935, 0.12905029353861797, 0.11030843451496668, 0.10488534943122985, 0.11890330434042122, 0.10055653690454451, 0.08635695357831777, 0.07952160992836348, 0.0717710820593174, 0.06547821132042381, 0.06577838773713238, 0.06456733274009625, 0.0658710800640399, 0.06347816067333897, 0.06328472433724418, 0.06724229379609302, 0.060288583282394885, 0.002180426259065197, 0.06101218978412099, 0.3063828034823746, 0.7653080219302929, 0.9875867416246658, 0.4930121426534906, 0.02001224130574281, 0.025804907195291323, 0.10292882395115178, 0.0866618040243837, 0.0833292854258573, 0.07620362929456485, 0.06460679724190453, 0.06738994277508709, 0.06764923323281345, 0.06322146023291748, 0.06710354051476931, 0.07120661268340846, 0.07419577950175142, 0.07617551230701962, 0.07816091463027579, 0.08365342501950469, 0.08876594222772295, 0.10191678669447504, 0.0004606356855583845, 0.00034772771054070525, -0.001251722205636081, 0.00017416511348587982, 0.0010777187900286743, -0.000947228312299077, 0.00023015917492803675, -0.0009590697630792915, -0.0010853546785073592, -0.000307852840461898, -0.0004962738682753671, -0.0005136267443533813, -0.0001941468452260093, 0.0006730613628571707, 0.0005619385751758962, -0.00013867891337393865, 0.000996185408135945, -0.0010527943352515107, 8.786925364674108e-05, -0.0004053142644397596, 7.203642207546572e-05, -0.0011480427858928085, -9.979950579886104e-05, 0.0016537002627089968, 0.001365285874778896, 0.001000974653669253, -0.0005624715960616987, -0.0012083487626789052, -0.0002972717415710907, -0.0003789607245816538, 2.8409411841379032e-05, -0.0011524560471544256, -0.0002215678407193778, -0.002259106573609301, 0.0007260711582280499, 0.00018108393047608546, -0.001710744089847152, 0.0002705846881305831, -0.0012757357158607852, 8.594038535226691e-05, 0.0005771576219939439, -0.0003143669043654151, -0.001002622706707289, 1.8843025397520315e-05, 0.0008081015761699225, -0.0021013470541353624, -2.4579931693218493e-05, 4.005832018695074e-05, 0.0009191773808947401, 0.0016872070086345959, -0.0006439263917120055, 0.00034128956902204643, 0.00026630379561370937, -0.00022448595008255683, -0.0015920633571629764, 0.0006184859707907176, -0.0006498795326360045, -0.00028650543001129284, -0.0012471899823098503, -0.0009212595273483709, 0.000342355902473659, 1
0.9992977564050292, 0.9194480425184541, 0.4546841676210494, 0.1381239446806427, 0.2959195795114136, 0.3677759729871405, 0.3259492247478676, 0.3243002124822216, 0.3185060999496094, 0.31166158532597277, 0.3192490886371122, 0.32281334883229734, 0.31938303552265623, 0.3216616860332023, 0.3304862716909238, 0.329463652663511, 0.3293830377616253, 0.3280203198413553, 0.3444544517090938, 0.34826870652843556, 0.3498413749226931, 0.35314978567397814, 0.36007204591263126, 0.3642463717542719, 0.3641365137318711, 0.3676818558041041, 0.3757812001353144, 0.3779335748444305, 0.3635708021603192, 0.36519599835200206, 0.36425548204471275, 0.35923668497685823, 0.33694128272321083, 0.31612507982880095, 0.31262837791823544, 0.29746734749488063, 0.2828375708223779, 0.2749800986277169, 0.27577625984594634, 0.27806714366641444, 0.26813752144354763, 0.2637474021805799, 0.2723268106083112, 0.2764006889391488, 0.26391007659682725, 0.25591198832449075, 0.2637648126580224, 0.25968991110062767, 0.2539793693482063, 0.25323728362454306, 0.25149904167185244, 0.24466695954586945, 0.23456155126616934, 0.23398051354479768, 0.23265466546890573, 0.2298399363543153, 0.2187122625238404, 0.21428625411564206, 0.22167307209725348, 0.2278983289744223, 0.21588409731823593, 0.21140356905319693, 0.21472615513527452, 0.2149454055891719, 0.20883684414509035, 0.20578427817947986, 0.22752481719217896, 0.23499185627038072, 0.23200758218801829, 0.23180078363512793, 0.2442121965002746, 0.26299714444443056, 0.24398328466721733, 0.23062026166880104, 0.2325514878029747, 0.22887547151488288, 0.21321317881508123, 0.191823325729113, 0.18839389989671648, 0.18918811249881884, 0.18556228080299045, 0.1856436941348373, 0.19325292198084051, 0.19183627293994826, 0.25497275586836854, 0.4211988319319001, 0.6499986714129073, 0.7892240982232329, 0.5881997853434692, 0.11921832074767705, -0.0005016371009351438, 0.16838663423243344, 0.21487095148116248, 0.1907033230651015, 0.18968522208460648, 0.19789828739951146, 0.1901273315582026, 0.19288029059470158, 0.20631165521689265, 0.21152644645347934, 0.2076380181029403, 0.21121281171820702, 0.21782489205086702, 0.223782004638474, 0.22253156261822668, 0.00010428197601445091, 0.0011036105341177438, 0.0004166511755351234, 0.00012866001414867854, -5.291026613652676e-05, -0.0007927308371774616, -0.0003443036868726271, -0.00043536037158505144, 0.00041230066817219313, -0.00038913026077341757, -0.0016676594191209941, -0.001127877034485618, 0.0008281931466976792, -0.0019926710790034666, -0.0011079004456089725, 4.184990457913891e-05, -0.0016881968943799417, -0.0016301154546525965, -0.0009034051301623285, -0.0006519937609915937, 0.0018655665405486743, -0.0017879245783929715, -0.0008150407207586918, -0.00014832692736781788, 0.001720979821486109, 0.0005895694433789954, -0.0008514364711627698, -0.0005757273457048055, -0.00017157507797526257, 0.00081748456374706, -0.001753271542134592, -8.57289551025316e-05, 0.0010015474446740794, 0.0003146392369361528, -0.0003941454417008018, -0.0011971585410545406, 0.000625573691460973, -0.0003100105217406009, 0.00021855910424911979, -0.0007456076586057429, -0.00031025119769215507, 0.0003097444353453428, -0.002139252752851599, -0.0007116366555489738, -2.6333522172515225e-06, -7.449411621779061e-05, -0.0012960575410809689, 0.001474807240529726, -0.0009723972215420078, -0.00020209896012473815, -0.0002618342874884345, 0.002414616161578694, -0.0010518862587871173, -1.4432731708748364e-05, 0.000371525533525884, -0.0008848261169122142, 0.0010963155515577583, -0.001006227962774506, -1.2600135785225462e-05, -0.0005430099683858079, -0.001031444644926406, -0.0019592364971394664, -0.0008645733869929317, 0.0016380940655507088, -0.0019549940501027247, -0.0012437979821353414, -0.0008877618292563728, 0.00029585117431743134, 0.0015663058972951917, -0.000921448420410617, -0.00010403533650834197, 0.0013513382153438377, 0.001456793072493267, -0.0014018673815103494, 0.0002092096030892827, -0.0003531155396358913, -0.000785126944342764, -0.0004177234543169053, 0.0014424714196948143, 0.0013351183679952137, 0.00042970610499186164, 0.00011770098222893876, 1
1.0023154015257072, 0.8987603576775417, 0.3179504297825062, 0.0006448244402732444, 0.25599171391503733, 0.2911201824099633, 0.30360477508676975, 0.3240982447977302, 0.3169168745780487, 0.3083689874776197, 0.3192354807159954, 0.3292137977185078, 0.3354662979468373, 0.331385555863805, 0.3380493445465772, 0.3470599776732414, 0.34806944737343876, 0.3525058959584057, 0.3542574990813496, 0.3669332785912706, 0.3735579401232723, 0.3779546170560589, 0.38820181382458324, 0.4035624478394706, 0.4040289813507643, 0.4073595579722599, 0.41936896115483696, 0.4321791519268974, 0.4326380861290054, 0.43565148526255476, 0.4423351046214614, 0.44925609097110286, 0.46358927019974877, 0.4687235024644495, 0.4647444498939192, 0.46360351253694687, 0.4293715439220189, 0.40428299718249383, 0.3925632127770504, 0.3820800530903484, 0.3658822296142859, 0.35312591282243055, 0.3454364798784303, 0.34925557105509136, 0.3464987509159831, 0.34112379638785545, 0.3349446958597449, 0.3417704179113788, 0.34193481225218325, 0.3362585720133233, 0.3468424422635851, 0.3502658622133039, 0.35602407598805635, 0.3572659536852275, 0.3576737414271239, 0.36782886610023696, 0.37069430092052447, 0.36109595223433494, 0.36544653709891584, 0.36968313121214963, 0.363751369850726, 0.35900946999063926, 0.3541175252183609, 0.35818496568388364, 0.35150015638392895, 0.34545388503837743, 0.3439097513372065, 0.35387743759673795, 0.3444238216384266, 0.33821164652947927, 0.3398919021285923, 0.3414596467384654, 0.33978297985249634, 0.335825979017656, 0.3368718533752239, 0.33406558765288374, 0.337819806328183, 0.33014691002261964, 0.3320108967012966, 0.34010773335638617, 0.3371396476841994, 0.33132353683435856, 0.3318066139561527, 0.33586613567797663, 0.33615891950278265, 0.32743861755638637, 0.33234579280682586, 0.3379589996227974, 0.3416206612601567, 0.3470267579679326, 0.3577360640172674, 0.37141397438055795, 0.38075067364783793, 0.380952498940711, 0.3654634844459509, 0.3723838764978922, 0.3639672162482088, 0.34191139688316147, 0.32951404178435656, 0.33662815019491976, 0.33990421127485776, 0.34086028581194955, 0.3572940283325356, 0.420919660800136, 0.6483935426851242, 0.9861028748604198, 0.9329841692914728, 0.3658817203488559, 0.016801528538650874, 0.2648945012723117, 0.3033900866426456, 0.31443837925789575, 0.3336401798421658, 0.3168237628092306, 0.31849000836349084, 0.3307023475859435, 0.3286759179049888, 0.32848194023369115, 0.33537647317997094, 0.34559924486005966, 0.3413259477276828, 0.34517294580009006, 0.35435366452599937, 0.3604319314828609, 0.3641884017219659, 0.3630568733799727, -0.001783642330307543, -0.0004554401921861237, 0.0002190567361507624, 0.0008243241883251457, 1.9094834787636732e-05, -0.0008866053257481747, 9.657079420819077e-05, 0.00034026827276784956, 0.001569901592421263, 0.001165070100113507, -0.00036445932880852736, 0.0008167618756837803, -0.00037842265664666516, -0.0001584387136298387, -0.00047559346671149206, -0.0015697968992301546, 0.0005863461769215675, -0.0011944581132279444, 0.0002028044077667473, 0.0011697710071408344, -0.0012371167014242543, -0.0014779999186048198, -0.00037053427652749226, 0.0004394692713854899, -0.0005392250032880567, -0.002009622342032842, -0.0012591168002639391, 0.0016349945024596582, 0.0006039732446704874, 0.0009781573366203487, 0.0008989783064564725, -8.60386806937568e-05, 0.00033607986411935087, 0.002190873101750135, 0.00023396985208805883, -0.00031583831071130286, -0.0013757780393764834, -6.636728423799078e-05, -0.0012252700446116003, -0.0019233828486049224, -0.0016396673760029673, 0.00019820344247637882, 0.0012623367773251773, -0.0006233740255633442, -0.0009212074227029512, 0.00014068314658350145, -0.0003774487556163026, -0.0012724613890582107, -0.0010770745838542277, 0.0005835255226704415, 4.7851239745415e-05, -0.0014121187166937896, -0.0002330171179224987, 0.0007820895600809656, -0.00023983696486030987, -0.00013743134351739973, -0.0004040653286923546, -0.0025679383482628913, 0.0009130706822773207, -0.0004126425068488004, 0.0008105205062802147, 1
0.9992340900325017, 0.8404120272513057, 0.22724996698256733, 0.04190551421694064, 0.26139334294834105, 0.34207639094660486, 0.3161377607591079, 0.3047400982385552, 0.307608716837187, 0.31850919411187567, 0.3158378264071837, 0.3118620327485929, 0.30940246960463674, 0.3162302259443078, 0.31915296152501976, 0.3143610414262594, 0.3122274569981557, 0.3252970669279782, 0.320694865461988, 0.3159581429324813, 0.3210541488119295, 0.3235415244562022, 0.32319207875208344, 0.3208212955778423, 0.3246730366388906, 0.33003250020350994, 0.3297297057188499, 0.32884424762680664, 0.3375890956498355, 0.3428964640634238, 0.3413590671804704, 0.33968412997369835, 0.3433510511669054, 0.3524225740666695, 0.35745140183613067, 0.35359711101774244, 0.3607148407126178, 0.37450857724020875, 0.37289034883594946, 0.3681299983418608, 0.3727741220586201, 0.3774155552661363, 0.3846430078094172, 0.37694250838373733, 0.3628756020339413, 0.36020042914000566, 0.3468890703447164, 0.3202870536413469, 0.30698810755150724, 0.29884950437256114, 0.29267092368751196, 0.2770953285341123, 0.27168931690424114, 0.28061070493142487, 0.2733797813870871, 0.26756336237245343, 0.2649299434283318, 0.27294641478378445, 0.2808685948308866, 0.27917642273524695, 0.2819357140240758, 0.2903689331419831, 0.2893050321205677, 0.28456386558014013, 0.2914968480944896, 0.30034252364300323, 0.29717338339808624, 0.2901928402998125, 0.28539488142621283, 0.29148044828934283, 0.2938167277902154, 0.2829927008523888, 0.292204238945783, 0.29503637711451747, 0.30626134316637954, 0.3063690967523032, 0.32164710139127445, 0.33653271980786065, 0.3328756821674143, 0.32763624312022605, 0.3255743794149144, 0.31470536977852126, 0.2950289545968038, 0.26544617239224866, 0.26942780186358506, 0.27808126463398514, 0.2712470546142741, 0.2639420985153786, 0.26163022737132924, 0.26774396735272965, 0.27084513113017783, 0.2607378692828105, 0.2687449451511724, 0.27348412819236495, 0.2757027814643829, 0.2772779001849647, 0.27785877192495706, 0.3353015049183253, 0.530102270612655, 0.8925840026038158, 0.9744428244981516, 0.43944633110963127, -0.00034060063114068446, 0.181250141830358, 0.32037623120278214, 0.31130961595028944, 0.2935801588175467, 0.2871631442665534, 0.29184059763921516, 0.2986058829984195, 0.30156349217293116, 0.29871525265270954, 0.29928209181408094, 0.3017200043953949, 0.3053141746199675, 0.29552536875196234, 0.2968389300893587, 0.3029398018000621, 0.30761229374489973, 0.0011552934812867632, -0.0009711708184103534, -0.001746358571509375, 0.00034631647940692545, 0.0004579317539305564, -0.001263175778229612, -0.0015108685380896298, -0.0007626417372978032, 0.0019477410556585965, -0.0003749661952707759, -0.00041993458004851384, 0.00027033259493790463, -0.0014556344853900534, 0.002479817331190383, -5.2250560875210855e-05, 0.0005492350844325754, 0.0006694718383131226, -0.00031894000176014415, 0.0006289544779509937, -0.00033943306687259875, -1.038039594886551e-05, -0.0006277756106181608, -0.0005221750707783856, 0.0007428259187467005, -0.0003387484166345438, 7.20616372517252e-05, -0.0012504272681122515, -0.0007194741298310718, 0.0010610245442623152, 0.00041007217919463405, 5.825024924558701e-06, -0.000151128529220521, -5.0102337762800336e-05, 0.0027007244800866747, 0.001236027006019275, 0.0010750820899005182, -0.0008087552816366863, -0.0023881285621117935, 7.730291688293679e-05, -0.0006000173293631566, -0.000215692079242203, 0.0020035712976364754, -0.0019197091779490907, 0.0001436962587811468, 0.00021110971493882452, 0.0004938626264410612, -0.0007064097698777871, -0.00018717898092904367, 0.0007163946308986338, 0.0005931835790893099, 0.0008759022283148857, 0.0006787564911386751, 0.0006613564120011347, 0.000210609459784989, 0.0007213819292480157, -0.0010072851815058831, -0.0006503680882324263, 0.0002778108482072013, -4.5563796338882664e-05, 0.00016640862671520712, -0.0013816960120566287, 0.0003707201184941427, -0.0004926978535339727, 2.4409791677145853e-05, -0.001636017079649933, 0.0010116461669274653, -0.00023498074522139412, 3.393919965198987e-05, 1
0.9747355441712536, 0.8769850722027885, 0.6677276180581115, 0.4679219514933373, 0.23148124036266535, 0.08299213219072399, 0.030129575101096637, 0.031357282925710876, 0.043472359780734895, 0.092544283641276, 0.11972961687344862, 0.14032453101419257, 0.17348230212763277, 0.18127928420654732, 0.18175414829800868, 0.1770698736195928, 0.17790807253350985, 0.16925538001207893, 0.1602586206666884, 0.15442088617554794, 0.15014459953255604, 0.14030327941294865, 0.14733821716591428, 0.13984910575383577, 0.1470810247440607, 0.14890148452425567, 0.16097136966561926, 0.16660092703579393, 0.18068428237525574, 0.19880194578425858, 0.21638235446736329, 0.2319976219129649, 0.25726320326397634, 0.26657785476822615, 0.28234799056517224, 0.30519610810276665, 0.3216763159204638, 0.3344695191334084, 0.3423548529968269, 0.35663954106432383, 0.36572471476928664, 0.3672574042873991, 0.3614386043926037, 0.36066828717204186, 0.35407354340693226, 0.34007206679660207, 0.34005904884478166, 0.3287558702544154, 0.32494511863569114, 0.3280799880078259, 0.3353888434496833, 0.3387252529293988, 0.33799609875048725, 0.3288269941540915, 0.34526659224421025, 0.35112379240549363, 0.3465934129597274, 0.3447171362050028, 0.34701914200402795, 0.35835251072737406, 0.3547185941518717, 0.31623580665254003, 0.2846096236266568, 0.2767129265156098, 0.2758083185270855, 0.26630456407771796, 0.26639538279523534, 0.26669808189057514, 0.26627957079984105, 0.2676282729700914, 0.26669342065192464, 0.26762769054347263, 0.27753475831410696, 0.2656299515477358, 0.2769255697255951, 0.27368479390771916, 0.28060602649920957, 0.2797617445458953, 0.27876481108057155, 0.24763848822150666, 0.2765165288874698, 0.4366854456931255, 0.5721427518397509, 0.7298760331034063, 0.9305477739825305, 1.0002040430822394, 0.9466951588254687, 0.7101343834840326, 0.5146071039969822, 0.25789244403540657, 0.09549149762738528, 0.00033238994599531685, 0.00525627620116482, 0.008804244457385053, 0.05594127161511354, 0.09158614851186453, 0.11836782321173972, 0.15225004968596229, 0.16384429661586025, 0.16600485745890928, 0.1604732780006717, 0.15773472765867882, 0.1530804264572324, -0.0010896614127004752, -0.0012980794798376283, -0.00038835704557647416, -0.0005004172743965549, -0.0006782816086530921, 6.340564954739782e-06, -0.0005186938821738156, -0.0005331050661592641, 0.0001057759257550317, -0.0006046327980695995, -0.00011745545294918865, 0.0008134413393997563, 0.0005842234881869349, -0.0003362297986815747, -0.0009614024435711578, -0.0012058863934482711, -6.537381107038051e-05, -0.0005964735639376802, -9.150642020512546e-05, 0.000720782144779615, 8.876809738288158e-06, 0.0016205607114274567, -0.0007409498801812843, 0.0009166265023240586, 0.0013379091552698748, -0.001156295806470127, -0.0009638159533571229, -0.0004085925767837123, 0.0006754848498965227, -0.0008238067073436033, 0.00023488676308121244, 0.002695568180155101, 0.0005216536255177156, -7.405822098934655e-05, -0.000259428470814331, 0.0016327762330533918, 0.0009962026995364798, -0.00043103987794020543, -0.00041705968303184973, -0.0014252378975601933, 0.001155075059464562, -0.0002654862381027943, 0.0007255692816057755, -0.00014607928030830545, 0.00032985654881391647, 0.0004339721932864898, -0.0018741788839407322, 5.419216370801439e-05, 0.001753324647953413, 0.0007489292685430932, 0.000876414060551256, 0.0006205435054705635, 0.0007755997222057675, 0.00031618139059675526, 0.0007221821341712304, 0.001036090160830243, 0.0006555876546998603, -0.00020944807429397168, -9.751940590342311e-05, -0.0012372233424413897, 0.0006616713974696498, -0.0003985693136658611, -0.00038192532932097904, 9.771061223707564e-05, 0.00010766406240018854, 0.0011540467894950914, 0.0003416407290320095, 0.00036954260962276947, 0.00024157608606729743, -0.0008489705090490283, 0.0009835535476878407, 0.00013750734640846177, -0.00030896100946816417, 0.000194547578342777, -0.0008740469519389108, -0.0007003801165704072, 0.0015214688641628845, 0.00045772759112785316, -0.0007245615663544675, -0.0007768643000075571, 0.0003050470248638216, -0.0008035003974556159, -7.175345650582665e-05, 7.425749763202073e-05, 1
1.0012747516206895, 0.8599322605126574, 0.46649604245786175, 0.21239478090663713, 0.02578067701997965, 0.01182125299439137, 0.01491864804837808, 0.013319665986961701, 0.028217923002604978, 0.016068906334158625, 0.013310651014531934, 0.0231574552343827, 0.034445678431250876, 0.02715769603919598, 0.01183100043257522, 0.009002411884037886, 0.007476308237703654, 0.017741158609379443, 0.004207745742313088, 0.0052199135913982295, -0.0017110130506326538, 0.014165975978058985, 0.0069708037445165875, 0.006571249044365008, 0.005937563156552647, 0.001305960569430518, 0.006336688889225457, 0.020429429981176528, 0.009685561825292725, 0.018526478469959994, 0.03036211107575724, 0.02806695724141326, 0.03339790347378125, 0.05379598626797632, 0.06427276928254988, 0.07087498247218789, 0.08505933580652573, 0.10322399368143696, 0.13505284700488904, 0.14080699448908157, 0.15829169745389615, 0.15406711126269307, 0.16656888032344952, 0.17865151751611003, 0.18227398826292257, 0.16417724436108644, 0.19960065043457814, 0.18704252267740507, 0.18316216497405244, 0.18219623486126885, 0.1799197561404115, 0.18238086832848957, 0.1726921217460421, 0.17859500574977857, 0.1670898915153056, 0.17069835224228674, 0.15979358332734675, 0.17649653568732587, 0.15358277957593908, 0.15883354924045712, 0.15308681321753623, 0.16079493699587022, 0.1603888042898022, 0.17155525055570653, 0.16662232526044018, 0.175003033776744, 0.1736756365528947, 0.16635907044185527, 0.17683185077923988, 0.17316114907255112, 0.1652641633963709, 0.17199028995119336, 0.17186787730569672, 0.1753419324298083, 0.16793461857844855, 0.1671568977631416, 0.15640529942873846, 0.16287076396700198, 0.16284681914803176, 0.1737859888798171, 0.17482183765533924, 0.18378675645033213, 0.1913700655200754, 0.20726615126633915, 0.21915819508009524, 0.22082186683029495, 0.19954052477210926, 0.1913871868106918, 0.18251484528470405, 0.18438274825666395, 0.18005449574077964, 0.19081802790536903, 0.1953488647143925, 0.19191680017632493, 0.19374452984875368, 0.19885701213781776, 0.20405210189916823, 0.2239959700460271, 0.3464777612454942, 0.8740130182452507, 0.343662337375407, 0.3686838936371872, 0.3587056604557754, 0.4489169862898591, 0.553536600194487, 0.6652568012517283, 0.8318206471079691, 0.8876975680048831, 0.6948875815563708, 0.4047657526114346, 0.19190632630245197, 0.10641962090141108, 0.1279893379669373, 0.1262247421710042, 0.13595779441301173, 0.13216906911006376, 0.14239502853180308, 0.1275220764012661, 0.1307552620124325, 0.13049530404315304, 0.12154507596083403, 0.12025017211979637, 0.11712406471438247, 0.11332547228686769, 0.10894221169368819, -1.100594850254126e-05, -0.0021983195410486852, -0.0006102500730800886, 0.0006750644047202413, 0.0020364341891976165, -0.0017699873617837525, 0.000489436513198262, -0.0012730153338161912, -0.0017303954893152648, 0.0004127374905871367, -0.001702367878044665, -0.0014042795164736584, 0.000791622847500118, 0.000930280049655997, -0.0009110383576367998, 0.00019398990273473765, 0.0002838949235933822, 0.002559078217232606, 0.0006965733917638008, 0.0003256030681980603, 0.0007974796251001506, 0.0009257615037776921, 0.0005288423041574014, -0.0002657120712406256, -0.0009106086979152855, -0.0011808016901717782, -0.00023158150843485294, 0.00021867710889502664, -0.0008164951741422096, 0.0007960475693713907, 0.0005211087233348023, -0.0012069843421593533, 0.0007763029038002071, -0.0004849761760432951, -0.0007329361732305823, 0.0002842878528366994, -0.0013587694086147869, -0.0007063521887296612, -0.00031563657277533443, 0.0014580760665670427, -0.0018344468860996273, 0.0010688786572069398, -0.0008687448079417113, -0.0005649486434240592, 0.00027366720506445257, -0.0004990069164777029, 0.000185677468993016, 0.0002073670458650686, 0.001789678247327941, -0.0008327640656146176, -0.0006168870567528521, 0.00033799974218559143, 0.0009391982235683421, 0.00039523469025721906, 0.0003058941546009608, -0.0001480383166170259, 0.000587698338817961, 0.0023502716879541686, 0.0009099593823119211, 0.001906006595529632, -6.9638786843353e-05, -0.0015061664522302359, 1
0.9147851907541188, 0.9414756854708082, 0.2752980030723631, 0.0006864730965724805, 0.2011311064387819, 0.2637498909852417, 0.24648453481250723, 0.23453345885420232, 0.2312722609231655, 0.23798208134300372, 0.27543493077827397, 0.2773897376799958, 0.2924608126586205, 0.29947183010111184, 0.31414321879289975, 0.3106616627328872, 0.33349066690335066, 0.32838972433518243, 0.3285771226917921, 0.3082104243731614, 0.304902882084151, 0.31630568003136633, 0.32322358528991857, 0.3182121646947733, 0.32812618877165245, 0.33094710664950233, 0.34609419815403386, 0.3187791877301496, 0.31068178728769097, 0.27866360233711124, 0.24955616760885713, 0.2479288533478054, 0.24888412042656516, 0.24131564835748598, 0.25636235577323696, 0.21625564211862602, 0.2361723195062511, 0.22995667589247407, 0.23200074510908675, 0.23198661506492468, 0.23740400941067288, 0.23259990119462412, 0.24635907054811113, 0.2328070525630386, 0.360870838001702, 0.6438838143612611, 0.9999050024544882, 0.7509115560515603, 0.07788919090408103, 0.06957561042536196, 0.23612215504178313, 0.22088587244919927, 0.2346578920819544, 0.23678365756367517, 0.23099949862002872, 0.0005936990706856505, 0.00021978500738722864, 0.0004906317366845573, 0.0011750674870886024, -0.0009792702268021152, 0.0007834985207627648, -3.650355287412163e-06, -0.00019103858119217897, 0.0014416684642527288, -9.873446960039966e-05, -0.0013650704488085948, -0.0010055697738244975, -0.0005714413148059382, -0.0007279698274456179, 0.001472956414254652, -0.0025662573376665104, 0.0015162475618065354, -0.000847566161108625, 0.002316683926633061, -0.00024792168473577265, -0.002255171276591853, 0.0007409812910845295, 0.0004968709477732738, 0.0003883360860776494, -0.00021889260155093544, -7.879121044938266e-05, -2.2896100499296353e-05, -5.2734584700895225e-05, 0.0006561043826814513, 0.0004915141866181128, 0.0007510002891559015, -0.0006435975215080424, 0.0008150090907989744, 0.0007826630769800627, -0.001011704699663818, 0.001049822088584613, 0.0009231413155172992, -0.0022542383856748787, -0.0004389620999030019, -0.0012740624628881459, 0.001520187474887232, 0.000560117163204007, -3.096023801769025e-05, -0.00031845886344244946, -0.0015476881384982114, -0.00032232128283857264, -7.583510177066623e-05, 0.000708467218615502, 0.0014608264615706855, 0.0002030126996993231, 0.00027414992220381424, 0.00020979321422299078, -0.002110107152857066, -0.001695130557508288, -0.00107868689354894, -0.00038153229237190996, -0.0008534307661911845, -4.8133900191827995e-05, -0.0005339332096660829, -0.0001303933148721373, 0.0007852610798749698, -0.0007386275177128739, -0.00024311382602510624, 0.0006313988502540004, 5.613860337205788e-05, -0.00010378365009271942, 0.001393784820246884, 0.0012955347078466494, 0.0003773704681806756, -0.0010887473398750321, -0.0004298612492710449, -0.0008716941826312198, 0.002962128886278469, 0.000947796132875815, 0.0012357878669360819, -0.0019760311000891918, -0.0001910534787872294, 0.0003218543220489501, 0.0004926174314103688, 0.0007307021719349858, -0.0014567006438385769, -0.00043115044849447923, -0.0006287314731056493, -0.0006075285112486251, -0.002010421778271287, -0.00022681434298590526, -0.00039144211266635605, 0.00028412909946936676, 0.0008210625810383778, 0.0017195831512311932, 3.6676067401304704e-05, 0.0014629469285425247, -0.0010814251433867853, -0.0024000659067543464, 0.0006661615003344112, -9.728876911214534e-05, -0.0020553370836304853, -0.0011668132929152223, -0.002327377386834161, 0.0010958940971677394, 0.001464165096104924, -0.0007883299757120034, -0.0010309959994010038, -0.0012236043312552154, 0.0001538784432231178, 0.00016179365693006474, -0.0011772797088557463, 0.00032917424117849406, 0.0013185598529058657, -0.001348021713302048, 0.00011778736910998157, -0.00032745067965611206, -0.000570591750757377, -0.0010228906306323875, 0.00041257386154871167, -0.0005513096053356731, 0.000667143184064198, 0.0011153198025582395, -0.00014677880980023134, -0.0011991406339428403, 0.0006218861157756758, -0.00042583035310079245, -0.001342534504718291, 0.0004934109338363777, -0.0003824344964920001, -0.0003589515764180526, -0.0009885876786020007, -0.0012134221152048082, 0.0014484821912592242, 0.0005071268665706739, -0.0012365766531509527, 0.0005314092728580747, 1
0.9908939513258301, 0.7655266849981821, 0.16682280366774627, 0.006158636970294035, 0.07335839462129633, 0.06905267738402851, 0.04249953320993669, 0.022417475411328894, 0.015895115571078217, 0.008036583003554311, 0.009616196505203374, 0.007449400078911552, 0.004264137641383674, 0.021538169666710592, 0.036047251488187916, 0.025572086927632364, 0.020045662010223647, 0.03416159859854312, 0.031744752567765155, 0.032245034676542314, 0.03380746873827873, 0.05072953931650612, 0.05108025021767107, 0.03719951771843052, 0.03604916655761624, 0.036856708307823526, 0.036308962895403495, 0.045572283451485125, 0.04319534148756818, 0.0436121098916337, 0.06246336472027136, 0.06369525042721065, 0.07554181268523075, 0.09653190420300237, 0.11170256749049412, 0.10494240341097999, 0.10838067105182848, 0.11413234672015345, 0.10337436069917652, 0.08229092692747471, 0.06598839831475369, 0.06702278991183348, 0.066052409004642, 0.054430782609047185, 0.04448700330635128, 0.05314748285970985, 0.05164245218317731, 0.04643371160060221, 0.04252735281536298, 0.05234797056226194, 0.05675964609584348, 0.043589681305142666, 0.03648108181432541, 0.04938589068729383, 0.05267908784314602, 0.041074973947618866, 0.04038707489343307, 0.059314615494230186, 0.08595152171039726, 0.07269698218245636, 0.07584208970696103, 0.11564225997065111, 0.11531212007807934, 0.0827712021551013, 0.06867730901582986, 0.06887823705664546, 0.06206691517535603, 0.025958144479793575, 0.010168786069734379, 0.03452463394837978, 0.037504448120976815, 0.027531651024754154, 0.024105286414322434, 0.006513866936540832, -0.00017195604957841252, 0.21818037965530435, 0.7023634352871188, 1.0006687431763326, 0.4856329296619737, 0.00929056372633517, 0.06214541131794024, 0.11716785906860872, 0.11572386389680756, 0.07416440347283305, 0.05867298871735718, 0.06582352426445984, 0.076190427385812, 0.06910922055834956, 0.05466907286168122, 0.06833873940753867, 0.08446859002885032, 0.0703856136183088, 0.0001440873097255961, -0.0004387370844794575, 0.000989519079689867, -3.269055544687716e-05, 0.0014998776257404193, -7.849449292324865e-06, 0.0009373324770757038, 0.0006282923249884678, -0.00038737289298038384, -0.001377756017764956, -7.310339913854106e-05, 0.0010648975581168116, -0.0012705537329898665, -0.0011629439416181353, -6.542247546385536e-05, 0.00036936588492658895, 0.000494333290847955, -0.0002510935942943407, -0.0010095981762505, -3.789254492839453e-05, -0.0006796662048621148, -0.0021807872524624516, -0.0010931072560291905, -0.0014781299009224845, -0.00020294294482936737, -0.0004323350081155645, -0.0006417209277220506, 0.0011865745690397326, -0.000220095731368156, -0.0015096946025357559, -0.0013481106373418612, -0.0005326243117579998, -0.0013181827608955239, 0.0001833986980455413, 0.0015961162139732782, -0.0012694639320840774, -0.0003115016755324382, -0.001354276953029901, 0.00027339992397817003, -0.0006501050838482125, -0.0002120988925481441, -0.0013971321071118235, 0.0010915738360564706, 0.00017078499190040594, -0.0005263987705296559, 0.0002893521184835875, 0.0017391202517545005, -0.0016774565162275149, 0.0010129197702284912, -0.0011490144789154842, -0.0005201318548503983, 0.00056435300800876, -0.0016860737354678361, 0.0011789629834094394, -0.0021463621392634052, -0.0016940267257052645, 0.00060424660123161, -0.0012534295865655578, -0.00038220750649850467, -0.0006118904780794938, -0.0005340793404291787, -0.0003307714406843535, 0.0005648187372205005, -0.00016489993563747595, 6.591106136894408e-05, -0.0003433682724210179, 0.0009101630571949025, 0.00028265718104494755, 0.0008154628701331103, 0.0007700197314648937, 0.00040895247152160174, 0.002437659577958475, -0.0003799764416674666, 0.00048055719905607094, -0.0013477764358011365, 7.384915721396658e-05, -0.0013436435528421612, 0.0014957663043319662, 0.0004999795848920738, -0.0007353989876430309, 0.0005119821531246252, 0.0003373174587716561, -0.001478666563341888, -0.0004793484052242772, 0.0006472292042659001, -0.0006481014402731296, -0.001966981739060747, 0.0017122885504039424, -0.0004021767780439102, -0.0020842635257303822, -0.0008616989644416587, -0.0009436043449160098, -0.0009250692759650824, 0.0011145999753740482, 0.0013878516439157164, 1
0.9494424904113166, 0.759929293777972, 0.1820060754384375, 0.0006521408994873384, 0.08473615120714381, 0.1264889015249361, 0.12041553611087592, 0.19081914763085286, 0.22764115328715823, 0.17835126404419266, 0.17963329704586845, 0.23805203129924937, 0.2995979181652089, 0.32707140860356404, 0.3267196733313697, 0.3176576269855514, 0.3226697271486891, 0.3174141966785726, 0.3242463009570151, 0.3398412141461264, 0.3366474507997553, 0.3269514736924498, 0.33458201071248944, 0.34624925069575657, 0.3556045330060227, 0.3392328997527081, 0.3434070806779061, 0.3935063991605143, 0.4075339250459819, 0.4339874656711774, 0.46156198682074817, 0.5054175871419835, 0.5257391025922861, 0.5370815624625399, 0.5538482080819566, 0.571263752610423, 0.5530942098995019, 0.5210755733192861, 0.48270550408433643, 0.4700207924039696, 0.44227708800119186, 0.390562626860036, 0.3628413960946324, 0.35504854752596554, 0.33556176065361853, 0.32217374788560815, 0.30261730312345214, 0.31022412634893826, 0.30264567103616147, 0.31142636034381305, 0.2935247353531889, 0.30409189909709067, 0.31122148422206614, 0.2967959893801035, 0.3064788242666798, 0.32456495682538156, 0.3171715803031896, 0.309930141196754, 0.30261441079620466, 0.3182923798880203, 0.3271503755339514, 0.3119825930564009, 0.31058433908127536, 0.31100058215268095, 0.3206522911333162, 0.3144981590961532, 0.31526427365181997, 0.31539748902286835, 0.31999468671504616, 0.32022523699965894, 0.3089919632009765, 0.31867163731239145, 0.30837088170682114, 0.2985080803323609, 0.29456932072855924, 0.3174637311426335, 0.3135474050486752, 0.2953287460757414, 0.29543377646686925, 0.3153606426650398, 0.3152585600487989, 0.31446929544224433, 0.31101371580666154, 0.32341911420097913, 0.3173998556094441, 0.32137246317917195, 0.3196734351309746, 0.3384757195933134, 0.3464540494457678, 0.32264083971561575, 0.3378724270907856, 0.3545907604406561, 0.3570621898774209, 0.32904992356905, 0.3309087886126967, 0.3504482480756004, 0.35942807104209334, 0.33460524435524686, 0.33886611388611293, 0.35982315516623176, 0.35868471810273417, 0.34195783293025045, 0.3389705503039313, 0.36075834068532026, 0.366739107734529, 0.3503032132296773, 0.35362648056031976, 0.3742846036436808, 0.37339881765657695, 0.3588294693969003, 0.351863893015839, 0.3782822635661496, 0.38548600747664624, 0.35789545354421937, 0.36269595841798, 0.3831130545945033, 0.3806769807562917, 0.36052337647552163, 0.36727948164137786, 0.3713143265232449, 0.35606640385322547, 0.33896869427849197, 0.34690384037199035, 0.3576316546999995, 0.3633820389886441, 0.3336793347840977, 0.34754864910920835, 0.3424109698629726, 0.3434582696415989, 0.34153001566220575, 0.32707037249998067, 0.3248989186093905, 0.33577261176059303, 0.31303879934436923, 0.3072594961768266, 0.3454256961745698, 0.3419438196427663, 0.3346982757465867, 0.33957107195967706, 0.34389177126666753, 0.33874081193655003, 0.33118516463545844, 0.3224714529271192, 0.33056981333074703, 0.33420176379735794, 0.32572562359285456, 0.31908822051473956, 0.3330906165704518, 0.3316234144647783, 0.31778629636429484, 0.32781409791267624, 0.34333926457663483, 0.33339651977337165, 0.3267648075658697, 0.31800323109692413, 0.3335825770304122, 0.32795291432030005, 0.30988211865644927, 0.3075762463297136, 0.3306901079679039, 0.3307506102859551, 0.3197676854553875, 0.3173006067759754, 0.33491918318991737, 0.327103454180595, 0.32460634387738024, 0.2987872121740126, 0.3262991192208506, 0.33467901544780876, 0.3185769065304823, 0.32661742987980447, 0.326314661394375, 0.3225232396185416, 0.3109760360172613, 0.31965640217913366, 0.33411236526030513, 0.32740878809759916, 0.3183664246210625, 0.3111076075275824, 0.33225264330980764, 0.33596521383777755, 0.3148814749208059, 0.311578879791641, 0.3274258696572684, 0.3315088031312368, 0.31104589534125887, 0.31494113546025954, 1
0.999659012912087, 0.5347281900269885, 0.05729651138006022, 0.13257299956274463, 0.12524150433103853, 0.14096189947734858, 0.1327077134747104, 0.13271968003540735, 0.12239930476227838, 0.13450105896017545, 0.12634578144776615, 0.13412354489100378, 0.13006515353420847, 0.13311800207491606, 0.12596237209239955, 0.12628756964534135, 0.1287324009916799, 0.1324763953125243, 0.1185457078981369, 0.13767684397980168, 0.13662307099094304, 0.13958187383531315, 0.1356310781434814, 0.14613783627761198, 0.12530692193655024, 0.1364083347061107, 0.12713070102856755, 0.13799047152305294, 0.1396341406401225, 0.14505451024844293, 0.1283214236880799, 0.14063325667501728, 0.1262084407314839, 0.13863826678392924, 0.12715263832869414, 0.12331799520118554, 0.11756313683210955, 0.14093240363406181, 0.1401215920136366, 0.17595310289649846, 0.1806072159856657, 0.1875369614974011, 0.17352751231810568, 0.18597755572908534, 0.1736914202306378, 0.17867700998869324, 0.16847816937348786, 0.18096758224084866, 0.15494863939548312, 0.18434014420216277, 0.16331191814600296, 0.16751782029375117, 0.15870436058244825, 0.15892114287667033, 0.1506451769568986, 0.15142016968426908, 0.13561103754969017, 0.15788826683333992, 0.13715556819062114, 0.15097215689305948, 0.14110540910104813, 0.15074272471655728, 0.14035336123934153, 0.14444204086931042, 0.14235369518782945, 0.13501658231328525, 0.133256569659819, 0.15657972135752551, 0.13690760655412784, 0.1487484544682668, 0.1380223107789691, 0.1661796822516995, 0.17781757469861667, 0.194657346831944, 0.19565311930593263, 0.22453977331251246, 0.20212450120310296, 0.2084688360591174, 0.1896833213586664, 0.2136184737138054, 0.20921137705860937, 0.16813432408840978, 0.13305322992084034, 0.12593937764480215, 0.10808615582039954, 0.11557987387277618, 0.11219811055601749, 0.12859178591191786, 0.115677077899168, 0.11159869043708182, 0.11078545108117226, 0.10770790560461216, 0.03894965899034203, -0.0005686790060842718, 0.06625779360650183, 0.37641694501649353, 0.8598061682890988, 0.79302058474312, 0.07992361091718399, 0.05384179217904413, 0.08051568184125021, 0.08972128877264716, 0.08731236449166292, 0.09558728136748977, 0.08194564736037166, 0.10311294100803624, 0.06915587312044336, 0.08954469954470488, 0.07588421973623555, 0.09453030002925206, 0.08322971902454118, 0.07860396582406144, 0.06859362411435291, 0.09099679039904128, 0.07953138080841947, 0.0006482562053206432, 0.001206792124215682, 0.00015197530045753444, 0.0011329527654317946, 0.0014606540584787878, 0.001293465269857023, 0.0005419091622929957, 0.0005952001860270712, -0.0008688179736616969, 0.0007746211918416176, 0.0004134323914999149, -0.0003705627981408282, 0.0004418016529910764, -0.0012666434345874312, 0.00020909191330748263, 0.00033558151635044466, 0.0011800585186011626, -8.265483986433473e-05, 0.0013858444904475784, -0.001413345728659133, 1.6632088450322122e-05, 0.0022550979569141466, 0.00045462201717415875, -0.0014295727268988532, -0.0007138549869398044, 0.001173180259793904, -0.0004951364449391367, 0.00013182521484191029, 0.0007015209608198432, 0.001901710288959411, -0.0006477445222520492, -0.0007714263931374655, -0.000970579685964941, -1.9456194649621387e-05, 0.00014428893129734971, -0.0013414530604621206, -0.00018767033216518452, 0.001438069246094415, 0.0003213805200796497, 0.0010957491160814893, -0.0014809348948440306, -0.00024035646376280908, -0.0004262750233699826, 0.00013495718074538576, -0.0015306489352311676, 0.00014010211065489277, 0.001139686283513378, -0.0001261927161295622, -0.0009494569046116023, -1.8134804578554673e-05, -0.0013278319358762188, 0.0011577789816638363, 0.002208613775481468, -0.0005645057575839327, -0.0005519041188979509, -0.0021282167432854493, 2.923291167251068e-05, 0.0016486276394267246, 0.0007370287418648424, 0.00034464933779602817, 5.4026330441982615e-05, 0.0004192159969429501, 0.000936779783045397, -0.0013930732412168643, -0.0013307229643077755, 0.00011047380194168596, 0.0009578446000635597, -0.0011332291668739905, 0.0009496321966193497, -0.0005504262628419783, 0.000513107577219409, -0.0009544611108403455, 1
0.9951725094506677, 0.9996302060302289, 0.7166770049751112, 0.36339315567896835, 0.05538725509842592, 0.048988389815420474, 0.1527543855183689, 0.2179191396114908, 0.3084954691505932, 0.3583233232437676, 0.3204387881592149, 0.34135375264814777, 0.3114374160391982, 0.32504006980818356, 0.27040946882439915, 0.3154745338218598, 0.2868795561381384, 0.3514926373194582, 0.33789745141535604, 0.2573264363533558, 0.33651376466657223, 0.28208708430154994, 0.3463958004038621, 0.3042197491312818, 0.29950172095428906, 0.34435534722570516, 0.3121365482651948, 0.3618894497897708, 0.31187516532527904, 0.3626503380667672, 0.37928284047313676, 0.3839802656116769, 0.35882324582083036, 0.4219128417211408, 0.3713577901285851, 0.45624288583493683, 0.3963522703834947, 0.45300930933407074, 0.4329061363228439, 0.43167730260731635, 0.4220524642368395, 0.4808229089748906, 0.41191711252767815, 0.4468449784069723, 0.4522709577537828, 0.4178862466248622, 0.4528120489864463, 0.4294167472534061, 0.4339253125718012, 0.4050162741058175, 0.3962713012935857, 0.4568732608376613, 0.363823867119312, 0.4266052992257413, 0.34919928318647053, 0.39985254951369786, 0.3962850167653565, 0.3708151898190094, 0.3536202707136608, 0.3451081965480082, 0.3421499405401151, 0.35282836035638176, 0.3306311528942953, 0.3345236294629249, 0.31526139820846033, 0.323900811058687, 0.316635459567798, 0.3234613038576313, 0.2944476650549878, 0.3372370174240806, 0.3254585375401053, 0.3425616522575985, 0.3292174787159897, 0.3450585284119639, 0.3352135303374658, 0.3666904049825433, 0.3305319609162265, 0.3802349797648633, 0.320643439518643, 0.40338365648398017, 0.34307893450696014, 0.4050509100509297, 0.3716081111604946, 0.36614328508657434, 0.3468009645368292, 0.41964384088421053, 0.36610074859039765, 0.3931010057028273, 0.3837039493892179, 0.3757209746143554, 0.3885622243631589, 0.4092428419981555, 0.3584507444540947, 0.38840210819977383, 0.38763583088214915, 0.40134680928621846, 0.4077289402790569, 0.4013960498062683, 0.38631561970802936, 0.403989102546151, 0.42549713909400083, 0.463413469412097, 0.44625006936490014, 0.48445006231590115, 0.5865976002680562, 0.5516347541090727, 0.6033886700642723, 0.5661011497240642, 0.516705800746286, 0.4191140875785346, 0.34266736644544216, 0.36004595197137895, 0.32932122098970357, 0.38142564674875845, 0.33351807238191733, 0.3640137761327306, 0.34169600288549834, 0.3636788271950623, 0.350171695701011, 0.36415275714463013, 0.33747475702804225, 0.35425161334706506, 0.3685134175307197, 0.6276028625764787, 0.8816601388402632, 0.8600201544411388, 0.9404742910780642, 0.9354829911262639, 0.9113296824428723, 0.6361946616029016, 0.25780664357012156, -0.0003333013179301135, 0.008272853657095791, 0.12267534627106126, 0.1819641877271875, 0.249911846112208, 0.26894010849677213, 0.24409425232410756, 0.29815752431620063, 0.2747402036099336, 0.24317589764133934, 0.2778583133472194, 0.24432956736578296, 0.2414558385269053, 0.20507345702752836, 0.26502635473492886, 0.2651569095500056, 0.23774057488659708, 0.23986341755617782, 0.26999791660132194, 0.0014199056101895278, -0.001673472424013738, 0.0003730464304495211, -0.00030555958347368284, -0.00012682144421884064, 0.0008275331461863499, -0.00031093505290402516, 0.0016382198487733147, -0.0016662230754102743, 0.0008902599620700085, -0.0006175608197266044, 0.0015190690142918538, 0.0007662324904842425, 0.001265009295119154, -0.002021920529292443, -0.00018697353027394964, -0.000777438961694354, 0.0004158073767915649, -0.00024788420165306694, 0.0006830548673567277, -0.00270410785065286, 0.0006380301870758342, -0.001011588748854401, 0.00015980209359873273, -0.001720147188682098, -3.311668793926611e-05, -0.0012373675655068042, -0.0014261998459993226, -0.001350313626141163, 0.0010567487528315433, -0.0009230987422645216, -0.0009442700042889341, 0.0003367425362667621, -0.000511040030930524, -0.0013097365100805812, -0.00048537993689611736, -0.000997583925142996, 1
0.9824896548881389, 0.9074033323490354, 0.2966421980166093, 0.0012623217309818862, 0.23100146825550202, 0.2515295127903217, 0.25767135744037084, 0.2698788836679846, 0.25503492613299, 0.2552259572891309, 0.258007869828265, 0.27243769087227016, 0.26993980425699377, 0.2706524741577243, 0.27402874061466004, 0.28066260902369333, 0.2797429895280788, 0.2855955951307387, 0.2944106521680926, 0.30073518653938225, 0.3008377023399906, 0.3040284191036125, 0.3087407096484305, 0.32064545389511057, 0.32300747507394045, 0.32397640165190483, 0.3380023037147416, 0.3493252510700639, 0.3479487893015006, 0.3499087072621598, 0.35829760923817944, 0.36173201513093695, 0.3632137063500738, 0.3651863034005735, 0.37722183865495607, 0.3920089252464742, 0.38914226136380836, 0.39801458482154595, 0.4043910757927012, 0.39917561352324343, 0.3687650677221199, 0.3509694072690734, 0.3377070296754134, 0.32247546637660673, 0.30648440513907693, 0.29387935744539717, 0.28958768569672005, 0.29225353098372314, 0.2875593519962849, 0.2905742616947127, 0.3008247568695094, 0.3009203105924932, 0.3046724417388277, 0.31123991564392356, 0.32106516994536727, 0.3180441078391602, 0.31744433598830296, 0.3215512458536482, 0.32251775853138914, 0.3223013676165292, 0.3165257049539509, 0.3128915534120568, 0.31519730764345266, 0.31211413307551145, 0.3039407407471833, 0.30019409399116914, 0.3058254486458027, 0.29623603170226015, 0.292807935124608, 0.28807358684070833, 0.28992525951579495, 0.2832863893582328, 0.2878292208969029, 0.28012941393184876, 0.28335574917950246, 0.2821468585639892, 0.28038817308883285, 0.2821844831458286, 0.2838015024163272, 0.2857532580222603, 0.28142269343398146, 0.27707341378655276, 0.28831205235858465, 0.28387025797928256, 0.2778614434684276, 0.27471768520978634, 0.28580323798696866, 0.2868102724242098, 0.2855077037447153, 0.2796680516874132, 0.28072943792688926, 0.28901115024712143, 0.28342381420340806, 0.273764992913311, 0.2897280947599859, 0.29169142904687195, 0.28323244809587145, 0.2875760798700883, 0.30548183265134427, 0.32354589888472834, 0.3162560315328445, 0.2974082786874938, 0.3000123316333012, 0.31025199938982134, 0.30244582134695513, 0.29066492587964027, 0.29094888857917645, 0.30288818250091176, 0.3012808575667623, 0.3394716512006672, 0.47384454770681134, 0.7666257136902064, 1.0009408893007612, 0.7774157526255712, 0.15711071438624102, 0.012514842437715064, 0.237798622387989, 0.25788517944083117, 0.27003477403842535, 0.2814657878372114, 0.2688299526421605, 0.2719712893861806, 0.281427938493162, 0.28611181673647124, -0.00046074867183550495, 0.0003290783406327745, 1.348802599696747e-05, -0.0011385507819751596, 8.624241106357293e-05, -5.849885079431076e-05, 0.0010506725314708403, -0.0004817129180599027, 0.00040930660998409157, 0.0006605130840979517, 0.0005837810140031357, 0.000354344731839108, -0.00018933792578574503, -0.0007243801716831775, -0.0011582631067972482, 0.0004366745307797857, 0.0007220766782598621, -0.0003865772482802841, 0.0010943251185555137, -0.00034301644699172117, -0.000743216638554307, -0.0013362308155505642, -0.0005498898703132817, 7.159014142588905e-05, -4.941545163154549e-05, -0.00018676566210423445, -0.002588342420697929, -0.0003719245555984153, 0.0012256573900681672, 0.0007682935665147924, -0.001148261830326007, 0.0018234704682050795, -0.0006790137255795992, 0.00019597152318066245, 0.000694104892419798, 0.0011289255016917886, 0.0023023863130089348, 0.0021985197658794943, -0.0003153331399046609, 0.0006488594282778873, 0.0012239595121622813, -0.0006217657050837624, 6.466634862490968e-05, 0.001279435934946766, -0.0012915788185369206, 0.0012814471349821184, -0.0002771099663340078, -0.0006634365854286731, -0.000661550941861772, 0.00034273818590612235, 0.0008383527770375655, -0.0009167438304056113, 0.0004424849811469425, -0.0013118812577736444, -0.00021664634909261275, -0.0010719896194409805, -1.0490358287087972e-05, 0.0011408595231345352, 0.0016010089289040103, 0.0012785526655640714, 0.0003607783444963769, -0.00025997482363413393, 0.0015633179583368513, 1
0.909050784102848, 0.8371888243079575, 0.44410585272519476, 0.2869129746714254, 0.2661605449832419, 0.26997956443802823, 0.23067823575731186, 0.1971926480576364, 0.16954926101723974, 0.1292401790709938, 0.09586676843625312, 0.07243100165777196, 0.05873986906378162, 0.056673766105375036, 0.06215414064888043, 0.04956132155051593, 0.05528085214931338, 0.04521672653493608, 0.05195551372667905, 0.05115377179982652, 0.03662543503658518, 0.0390944134789875, 0.039158933011169975, 0.02835048673684186, 0.025329651050788122, 0.016135657130958582, 0.014972056840587984, 0.0017046150127774207, 0.010847425438609936, -0.0008140893199019914, 0.014896542231904562, 0.02266446662505676, 0.02543952022321269, 0.04287871034897324, 0.0708941974785484, 0.09903187177974858, 0.1154323966117581, 0.12350443315635873, 0.14257538028664204, 0.14127059216741805, 0.13901478747534962, 0.14935729821194987, 0.14314658581107986, 0.1478617092534983, 0.14845185304951092, 0.13938864603156545, 0.15060963842551106, 0.13392131705221444, 0.14546770450512603, 0.1377245659748273, 0.13923408002244858, 0.13760917988229826, 0.14359557741443182, 0.14469284638317237, 0.14414506119645815, 0.13510647756491084, 0.1432806757238572, 0.1399334368448457, 0.14719942006308398, 0.14235730857480472, 0.15253869879345733, 0.17346191772070865, 0.17694966709380408, 0.17307197559098525, 0.17961854117389034, 0.18574857024831362, 0.1878239178644833, 0.1768293219869396, 0.1823932293589213, 0.16525443985006116, 0.15747761825656353, 0.14127417117039062, 0.1467492380957464, 0.14651918686566462, 0.13871067032928802, 0.14906534041945285, 0.14861255353902214, 0.14776367008390873, 0.16494191318385037, 0.16867634254515765, 0.30483181765037853, 0.43060576003560147, 0.5856737895635643, 0.778854962518387, 0.998844266216058, 0.7892719536503807, 0.3275691960528436, 0.23845167293083874, 0.2631508267011916, 0.24693024201389563, 0.213458600360256, 0.1841621393358756, 0.15765388770420902, 0.12405069474200447, 0.10951821266773534, 0.08713655632638316, 0.09444484275201774, 0.08082558453391674, 0.08712361824363865, 0.08447271960180498, 0.08768751226089129, 0.002329447220280659, 0.0008792651801663422, -0.00013024849310188475, -0.0012708471438493843, 0.0027149655490893744, -0.0008125623258168591, 0.0005827757109322633, -0.0007853810363484795, -0.000636568201902547, 0.0008114226900501388, -0.0007833394123913838, 0.0006323524670713137, 0.00027853874809015595, -0.0015176442661013806, 0.0008535184516300102, -0.0004079245486458318, -0.00032405124047215646, 0.0008818562337059534, 0.0003583563146259818, -7.640805522124249e-05, 0.00020582118803292774, 6.365822032182837e-05, -0.0005035402849413999, 0.00025649051909215284, -0.0011417473710640302, 0.00039361542688023146, -0.0012517093965452857, 0.0010952328459420215, 0.00038232439980585647, -0.00035532559991821073, -9.6692910164668e-05, 0.0009674909613171612, 0.0005051414459074256, -0.0005649899484259407, 0.0003776127496243439, 0.0008291887072354461, -0.0007188396445350441, 0.0006536805463798332, -0.00039655888885910875, -0.0018391886637714793, 0.0007560006418898601, 0.0009656025206595706, -3.315922107925958e-05, -0.0005030045689097688, -0.0008269431635696881, -0.0007465143473510675, -0.0014778543694596667, -0.001922931335058552, 7.789152491514248e-05, -0.0011649427533787242, 0.0011847230895030713, -0.002232339250407461, 0.0005151498983762389, -0.0021207570730039766, 0.0012753150516596117, 0.0004255009143134055, 7.099631516195915e-05, -0.0011394631762322984, 0.00014620825296128337, -0.0003109171491224552, -0.0006567074481686645, -0.0010611035300256918, 0.0009467197306796691, -0.0014600158595853606, 0.0017990487422443323, -0.00045988150496503586, 0.001011708602673929, 0.0013788598414627173, 0.00016195208738789768, 0.00025986175586463907, 0.0017930811069031655, 0.0014931286249383485, 0.00048032673313692876, 0.0005059632744183756, 0.0005054434913761099, 0.0014983152091892818, -0.00027617302776466296, -0.0008675487966306715, 0.0014117951327385716, -0.0004110785185584127, 0.0001827408006788983, 0.0008153491101399659, 0.00026724872306416436, -0.0005967926031800519, 0.0006612957977455589, 0.00011582790677235578, 1
0.8381581103105397, 0.6191868503812346, 0.4020304818368761, 0.16990241099992884, 0.0334775345217185, 5.2546231912410575e-05, 0.02163441640678439, 0.07235599666851832, 0.09724896821803025, 0.10967150998879599, 0.11459600770359349, 0.09852758577931989, 0.13738654364781877, 0.13680285443589824, 0.16589479583996938, 0.17163300053943556, 0.208123856544541, 0.2119501131512194, 0.2581890114045319, 0.26572433465886913, 0.29935129842177477, 0.31943536809631057, 0.3840658492462417, 0.40006154919637055, 0.4459207417029051, 0.4737061779198304, 0.5116942605536581, 0.512179027222723, 0.5664406542801216, 0.5767648464916054, 0.62785119354543, 0.6125748050462626, 0.6058691072080954, 0.5481415336213453, 0.5151793526079432, 0.4672135447808074, 0.42397810693692894, 0.36832233474176995, 0.36481139322636963, 0.34118184135432705, 0.3607347184796069, 0.3165616208713931, 0.30862565486467347, 0.31345728460575145, 0.33410514205279035, 0.3460247870298388, 0.33922692230291485, 0.31548860572383935, 0.3312737862386364, 0.3387620732422746, 0.3457494854902355, 0.3452663792416539, 0.3721974450971738, 0.35845008336879824, 0.36353363469947864, 0.3531453258350238, 0.3759337757041056, 0.3618317523435084, 0.3576303800841804, 0.3504187925992728, 0.3679129320725053, 0.36226318196548485, 0.35799195083384616, 0.3382297460665055, 0.3518646475136956, 0.3376536826614202, 0.346572422215716, 0.3312989638558047, 0.34827454847240746, 0.3454729850229633, 0.36398475311096246, 0.3569493439594453, 0.3704993377197515, 0.37512817233229, 0.4098109709540047, 0.3845247343575881, 0.3942800783593813, 0.3566349948111603, 0.3589319169329142, 0.33975707914091774, 0.35285002349482425, 0.311714991084987, 0.3414271587122883, 0.3000144755220695, 0.3191857986122439, 0.3118097179476798, 0.3063793787702134, 0.29711862264671257, 0.306624919242515, 0.29832802824343607, 0.31272224602190873, 0.3009658142197145, 0.32007816450975135, 0.2984857372285171, 0.3009658132777667, 0.3032701507167156, 0.32395136141914904, 0.3123770360020569, 0.3690194309155861, 0.4248216809317683, 0.5914379023969167, 0.6349098616720842, 0.5259175449416027, 0.4948761340105282, 0.7670932467156606, 0.9984701717659117, 0.9278257135419906, 0.7003287093665685, 0.49955614288174516, 0.23518669401473183, 0.14968478710807678, 0.21890199431532983, 0.2778057782027477, 0.2754693834363253, 0.27969773371847606, 0.2850715154241934, 0.3016691733663235, 0.28142265097954694, 0.3067568383316537, 0.3153048882444809, 0.34181701993217933, 0.3400290380866333, 0.36497938506715494, 0.38012231403502883, 0.41301032537061777, 0.3989501624442948, 0.0003132594257950433, -0.0005689991070104237, 0.0011817209145594967, 0.00014079968037311732, 0.00035860069624623324, 0.0028910791043057753, 0.0001344024534069833, 0.001584937978645053, 0.0015561025112483917, -0.00021706705371342196, 0.0003938882865353429, 0.0004799566460601114, -0.00185330384074489, 0.0009712732003313579, 0.0012398167731711798, -0.0003452394081368885, -0.0014269318358341263, 0.0004864768999240711, -0.00033919838685465446, -0.00031073839663063786, 0.00033451182181269944, 0.00026823393464025456, -0.0003748205912257606, 0.001264202159509313, -0.00047599612053377937, 0.0012520932079660729, 0.0008912191802902188, 0.0006596613334272235, -0.0007574281811194559, -0.0004904580716786874, -0.002200442257490241, -0.0005192379282378438, -0.0019496306341223258, 4.541140446452499e-05, -0.0006567122542760106, 0.0011141420880081058, 0.00011472345504804843, 0.0011334165968829102, -0.0003621356322959925, 0.00019693864963555237, -0.000720107891415468, 5.997950288342871e-05, 0.0005185928842036081, 8.616331105750551e-05, 0.0003703435954202304, -0.002079980588824362, 0.00020301657237404148, -0.0007394871247212027, -0.0002634004632593041, 0.0015478635499946093, -0.0003384016263741186, 0.0015752042067894842, 0.0001701635214229696, -0.0008224888466040626, 0.0018978806039063828, -0.0019160621240225364, 0.0013820551968231922, -0.00024235243609284376, -0.00030664171547818263, -0.0010500924458034671, 0.00037643242176367244, 1
0.9995385843029322, 0.7833645861617431, 0.3046860397529481, 0.35649566204868866, 0.2681454062937285, 0.27964447378192636, 0.27180370532428866, 0.2722357126332629, 0.2671596313158845, 0.25384287734689526, 0.3328785129347611, 0.4232560840533878, 0.43832856884148363, 0.45165567486677416, 0.520803735080057, 0.5158731641302317, 0.47545852798486987, 0.4666716730880714, 0.49323836532231335, 0.5329764669314767, 0.49997967598981347, 0.5527345286268371, 0.5459494887685146, 0.5561816242882268, 0.5316621521977186, 0.599368738318121, 0.6337538325913457, 0.6339144629830413, 0.6254677557342178, 0.6357211816959784, 0.6180956222700287, 0.5399149688522116, 0.5716478030628513, 0.4952258717479983, 0.5093152721136762, 0.5110933891508354, 0.4002476653412198, 0.42011700663264573, 0.45454267505889295, 0.352380293454846, 0.3953064000935109, 0.39622866662745354, 0.35294428168019726, 0.40033185795000253, 0.42742498565147785, 0.3740009521984597, 0.34315643189420514, 0.3904811734942614, 0.32956581897299775, 0.38424042494507477, 0.3849216795545941, 0.3596337117434258, 0.3696500820548143, 0.3601751559824178, 0.38999200507399434, 0.39430786181931116, 0.39060085560779895, 0.3654938473475868, 0.3702777574881228, 0.369042134178404, 0.4548133290284353, 0.4470863315724563, 0.3860626728679749, 0.29162816570968886, 0.2357527695245183, 0.19457055542364352, 0.17676399226920184, 0.14814929790709716, 0.1617106795905905, 0.10980251456128566, 0.13736335595820312, 0.12245423224626949, 0.15727473123585117, 0.1551675699587199, 0.25747629974736935, 0.35854613611781083, 0.4628053619153507, 0.69576951681831, 0.4525742590615537, 0.04924789535684417, 0.09312446413949363, 0.06908471699361765, 0.08126510036431955, 0.059219825788459135, 0.026803008873622736, 0.0001421175931551201, 0.07224286904139515, 0.08695980395986035, 0.15354760826267602, 0.21074242793825873, 0.26578419128085173, -0.0008402344234715435, 0.00034309148684557716, 0.000994943207667788, 0.0010547204375590845, -0.0004521469323072841, -0.0009494154099164569, -0.0002568965823614462, -0.0008374639636433524, 0.0006517605027133392, -0.0017799134913210717, 0.0008496227669802763, -0.0014257717455622113, 0.0002541284385069862, 9.435944125987077e-05, -0.0016181885863384524, -0.0018724618072738155, -3.556859958230021e-05, 0.000643441640885551, 0.0021170119041516835, 0.001028143265825427, -0.00019412758828401354, -0.001221744549258835, 0.0008849971281918128, 0.0005825560234074952, 0.00031501037815854805, 0.002074473706127564, -0.0001777931985620967, 0.001160628085635515, 0.00012243853547121806, 0.0012131660978342378, -0.0021793397930500217, -0.001599111360913868, -0.0007761231527478685, -0.0011899462116385015, 0.0009614047390766787, -0.00012470942328777013, -0.0019209596342595328, 0.000850933770485703, -0.0011660880073470388, 0.00023723840872123445, -1.118931336363475e-05, -2.84384903697063e-06, 8.81075035865087e-05, -0.00041077414075290047, 0.00041932133546777325, 0.0002483153906608425, -0.0009828002789177626, -0.0001787569517907242, -0.00012978435089197707, 0.001237725353911402, -0.0005476289652089955, 0.0016675557695558828, 0.000513607397373489, 0.001142109173264633, 0.00045029136185599305, -7.999046432772299e-06, 0.0008006658889255192, -0.0002556898184152576, -0.0008518825809640631, 0.0006659892310862658, -0.00034948802930694073, -0.00038000658989516625, 0.0016655655963332217, -0.0017499914205009858, -0.000697734377975722, -0.0006253199140276274, 0.0006644063545861053, -0.0017742513276517047, -0.0009621446567565536, 0.0008903418986676175, -0.0011894774381745318, 0.000378882829567933, 0.00195501342419347, -0.0007204653994445389, 0.0005064886809313538, -0.0006446839606001285, -0.0013914232918023138, -0.0007336597382115443, -0.0006070521320573609, -2.3697795517776307e-05, -0.0005380498595468748, 0.00018632457910423397, -0.001887803373963523, 0.0013681198604567591, 0.00010585806529936183, 0.0003389881603313507, -0.00013153024138579968, -0.0016155741871916223, -0.00023736977896224505, 0.0004163493479652965, 0.00021176071003463763, -0.0014887025032453353, -3.1183766703605785e-05, 0.00030440978862509606, -0.001446709314072609, -0.0014082663212545404, 1
1.0000500191448334, 0.9189724951211588, 0.26290245842064364, 0.0512474685578741, 0.10891912660421005, 0.20026298411677973, 0.1850791423049857, 0.20057198775108318, 0.1774897505208242, 0.18805930954338143, 0.1704619935172344, 0.18742912388210686, 0.17561929059825726, 0.18289988234240584, 0.17362133539164945, 0.181198778737906, 0.17665455819217074, 0.1870007155706973, 0.17740312066268116, 0.19029805124616278, 0.18509205127091777, 0.20461741847795917, 0.1982188039352699, 0.22484013042965365, 0.2252663236960733, 0.2523996037808746, 0.26507942836595033, 0.2881521760358566, 0.29973915048131655, 0.32789439361554956, 0.32738185263215575, 0.35138945752772266, 0.3525019646092161, 0.3669855861582771, 0.3482775181248368, 0.33685862096104535, 0.3086768452008658, 0.2970406052705146, 0.25381000956911387, 0.25646808837832485, 0.2273829584950979, 0.22427060619698883, 0.2047246583834308, 0.215395980782225, 0.1998835277071273, 0.2061780212349354, 0.1982973808152073, 0.20648276581641217, 0.19866940792728463, 0.21014231310467116, 0.1931619246627676, 0.20968420585737477, 0.20644854580834715, 0.22597355686483434, 0.22112036596174592, 0.22868803484922484, 0.22303595088233877, 0.2324512202880971, 0.22336140804564836, 0.23091481113652204, 0.21853199429537085, 0.22321780152785245, 0.21576479081506236, 0.2114538091259479, 0.20625138570846147, 0.20890437926448832, 0.19463791890945803, 0.19942059406273746, 0.186338919981541, 0.1940820325899208, 0.17957924247886217, 0.1823503428235669, 0.1705472074204168, 0.18318124694794718, 0.1738229700749942, 0.1745691849920238, 0.16400363372436336, 0.169445918711414, 0.16111141765955697, 0.17518602449797968, 0.16556588012898293, 0.1704983227126205, 0.17948865209159068, 0.20160425939899243, 0.19282083706313877, 0.20438683740693156, 0.20978275913121874, 0.2091686588430069, 0.2045729489366748, 0.19803891451038091, 0.17819461540617187, 0.1939322295326591, 0.1769146414095374, 0.17252723671295808, 0.1472976060686002, 0.14239414506564557, 0.13378818154076189, 0.14084161458082345, 0.12083711823946126, 0.12862568839125427, 0.12423953873432511, 0.1346044648987432, 0.11691499828591788, 0.08205127010540851, 0.13534197732497358, 0.36342231090665794, 0.7581065387854915, 0.9442309828833704, 0.4466384278420407, 0.0012631168547833852, 0.012567211405165384, 0.13114879524566012, 0.11019999984896309, 0.1297081461519793, 0.10802439908203479, 0.11256340509186764, 0.09975832553893131, 0.111933160598104, 0.10578351758247806, 0.10878586104454453, 0.09894952670518165, 0.1101104847609014, 0.10495766370365549, 0.11083700242302932, 0.10399528017459757, 0.11946663890407874, 0.11415898458728886, 0.12797589988360594, 0.001385396382470763, -0.00046800154793017634, 0.0014520887659612313, -0.0011307942079563783, 0.0009895174694342867, 2.737890245687326e-06, -0.0009059221495820953, 0.000706422075653586, 0.00014298595328117051, -0.0001054991046023166, 0.001013220196921876, 0.0009668670887317556, -0.0007028717093619223, -0.0014765819562769823, -0.0008577242087916856, 0.0029158620404610984, 0.0005355113775752128, 0.000450458235198871, 0.000706486472742522, -0.0003698815976286732, 0.000995727520192063, 0.0013264459198378197, -5.9696192085737086e-05, 0.0006255219412261756, -0.001693521214322139, -0.0010484098680163282, -0.00031910295105623575, 8.760778613333463e-06, -0.00200487922951912, 0.0010676257821381427, 0.0013530022985890802, -0.0010461125893905826, -0.0010018677136710607, -0.00028546287642437437, -0.0019663973949916817, 0.002306342769264589, 0.0001113334977074554, 0.00032127632577413743, -0.0019801954073091032, -0.0003672134906804256, -0.0004954422819702089, -0.0006980290574694375, 0.00020718187406641646, -0.00017458935619644783, 0.0003242206422781058, 0.0010145029525662622, -0.0004451426371233599, -0.0007587091219730613, 0.0016553503096076749, 0.0003223597049106064, -0.0013637461596825388, 0.0002033565457635163, 0.0020991493579900896, -0.002491679687359328, -0.0014216598020568676, 0.00011727415518851151, 0.0003970132212937695, 0.000559136188746174, -0.0010120236604124488, 1
0.008285380772673209, -0.0006773348614344818, 0.09282818700196907, 0.11492473290061092, 0.1677477380847005, 0.24179415906239793, 0.2945300420775463, 0.31214531536509543, 0.35940165671657776, 0.402261263700206, 0.4198545123847355, 0.4327513676651563, 0.45813254536165826, 0.4650499413540995, 0.49842096547879955, 0.5164326207407959, 0.5693253125172857, 0.600872506522235, 0.6435481738807007, 0.6737687635903407, 0.7159635085927263, 0.7426969513951598, 0.7866011926595602, 0.786985616626515, 0.8022985568562074, 0.7723384999486971, 0.7329300236718992, 0.6667230994805139, 0.612942506048056, 0.5412036909531257, 0.49583514681962026, 0.44399741450777286, 0.4274936910066252, 0.41825023196360783, 0.42200793900990147, 0.40509062090344833, 0.4064190954984463, 0.39090886391521285, 0.3967627388585997, 0.3917084018277942, 0.4014445576388953, 0.3894740993643856, 0.3961703417062359, 0.3864344800160364, 0.40134840169373875, 0.3837495139673732, 0.3965544172170315, 0.38304761104024915, 0.39126000438129915, 0.37630924047708003, 0.38175106477883775, 0.37829987503673546, 0.39052894394438037, 0.3839100062765831, 0.39110495026708797, 0.38674538222922006, 0.3966316994207575, 0.38268781299269033, 0.38872644446581295, 0.3870083842707606, 0.39864671411552854, 0.38648416082763076, 0.40855375620020173, 0.3993746447484552, 0.4099497005781754, 0.3975737236633358, 0.4113381132967021, 0.3940559064358523, 0.4094244978046741, 0.40181715301235055, 0.4216420246606366, 0.409571070095196, 0.4203873902837892, 0.40407463645441316, 0.41461499764499044, 0.41333576907887754, 0.41897043137240886, 0.4153614733674112, 0.42474040655842293, 0.41730025127027315, 0.42813190961574593, 0.4304437443626311, 0.4442675157046091, 0.433351588797746, 0.4266683513428466, 0.4285513577767486, 0.43406113062830576, 0.42478324541245793, 0.4376413519187573, 0.4293837298204551, 0.43883115919781107, 0.4151125066237685, 0.4459176705787477, 0.4345949297044763, 0.439862033207289, 0.4393348674364787, 0.44902696234200234, 0.4388740396458795, 0.4603183698209611, 0.451091251977943, 0.4686662353472628, 0.458053135921145, 0.4593927418072316, 0.45757448526986055, 0.47025374877100945, 0.4625604469497621, 0.46760107082281455, 0.48044554296331127, 0.4913877416085127, 0.5021660177731333, 0.5514087115257458, 0.6118493829064716, 0.674213316260917, 0.7739945977500496, 0.9062418970818662, 0.9607445138923106, 0.9985759119978823, 0.8628434686459059, 0.6583968099610795, 0.4837719919428272, 0.44771578005348356, 0.41660057419709823, 0.4022868387006229, 0.388255943624983, 0.39846382467504055, 0.38581034702150363, 0.3886725994337055, 0.3821560863866972, 0.39842475119692083, 0.3941579024472545, 0.4053508334608976, 0.4040256617964487, 0.41209530952997503, 0.4183607560986447, -0.000827205455949793, 0.0003512632236713846, 0.000246921959802807, -0.000178781658802957, 0.0004539471405336732, -0.00020868934652326716, 0.0012508801741143917, -0.0007477286697605942, 0.0006024178935656904, -0.0004655468225646543, 0.0005032983882331451, -0.0006877227887724576, -0.002922780179007194, -0.0016323540119554869, 0.0005357726369204554, -0.00039742665040496647, -0.0008307201239331494, -0.00026297651657520633, -0.0003296947709922075, 0.0024716265768963235, -0.0008661401106194683, 7.429885935628679e-05, -0.00010253566668463422, -0.0015075957178445109, 0.0012701260675726427, -0.0012195929839702781, 0.0013739445712263548, 0.00010544726936108963, -0.001322316521176622, 0.0006471585857387224, 0.001172068631786648, -0.00144876181629816, 0.0013484415650383884, -0.001564321725519999, 0.00063178313635859, -0.0007695880448376978, 0.001292534594633389, -0.0015220737486839585, -0.0009794994438051797, -0.00041349248943106323, -7.544380640350418e-05, 0.0015659638119158588, -0.0017618042844163126, 0.0007401865533479225, 0.0003880244729418588, -0.0003631524510641157, 0.0017558124178872023, -6.244498754211109e-05, 0.0010866756659950604, -0.001810511296121143, -0.0006308903315811043, 0.0014249783617788139, -9.65012817948632e-05, 1
0.9648534981697369, 0.8313124178215727, 0.22592281516714313, -0.0012761361908483746, 0.08977492493819045, 0.13422406599610157, 0.10885221644266609, 0.18219967733320674, 0.20214973365989175, 0.15649416402708397, 0.18131775592577828, 0.24516834228624015, 0.31631046049201605, 0.32633005127323095, 0.3292681148819157, 0.34308265866352666, 0.341723584805247, 0.3297267732401215, 0.3354191954288182, 0.3680870379785749, 0.33900521533803646, 0.3263847541049728, 0.35115015687435386, 0.3657047195917632, 0.36035341332917203, 0.3553734796117478, 0.3780378062985439, 0.4337053773402722, 0.4618331797646906, 0.43406284291779645, 0.47428407521229105, 0.5225162138410515, 0.517380755960362, 0.5179225640732468, 0.5616187202110927, 0.583210206831084, 0.5531700755298088, 0.5493688368162233, 0.5103566259345772, 0.4778954865740612, 0.47415141936700156, 0.4171573577646941, 0.391763605077952, 0.4008347604701335, 0.37032168850689856, 0.3279594848228548, 0.3240291053682064, 0.32277717141804413, 0.3160496637795396, 0.3152365421317142, 0.3157577059763052, 0.3223565923589445, 0.2921588403146566, 0.28753080203128617, 0.3106399727678217, 0.3011599545396402, 0.30806719187939313, 0.306546627422464, 0.3003882764259079, 0.329274723127592, 0.31106145108643884, 0.3127944949644889, 0.3181868133365389, 0.32845354516628245, 0.3125608816039685, 0.3076074537999076, 0.3004385990270909, 0.3202433623388497, 0.31419383160004827, 0.2900552842253356, 0.3023823928883457, 0.3239874205138071, 0.29405705834705725, 0.2919165833979901, 0.3076887533960927, 0.3146823496988532, 0.30623955369985173, 0.2826362708195072, 0.2947298842285591, 0.3236088946590312, 0.3030131582335555, 0.2868612108634249, 0.30360564809503265, 0.31109084564567097, 0.2893268440689959, 0.31499738658675674, 0.3068555369066599, 0.2829219798387308, 0.2882009662534893, 0.2744224732808386, 0.2792489352916119, 0.31162126792366507, 0.3157349353079064, 0.2727926262938754, 0.2916141827819593, 0.3024290642503027, 0.28714783782910175, 0.29676446023719755, 0.28800452619176353, 0.30220199947228216, 0.2999762523415132, 0.2794445760983535, 0.28631672878912495, 0.3031283443310508, 0.2977701686707512, 0.28888563553739144, 0.2878519220997601, 0.30351653290663244, 0.30295468672343484, 0.27919748821359364, 0.3003421723835161, 0.30768489577851915, 0.3068217810830515, 0.28796523159942244, 0.28564814750766254, 0.3237117966463925, 0.3009669811539685, 0.28690764764069965, 0.30238659192270373, 0.32488318081559114, 0.28153444007277895, 0.2874857847526565, 0.30340281583334117, 0.3083608830945257, 0.2997893118859656, 0.3131613907328253, 0.3072172650831201, 0.2869302521747422, 0.2846161627032515, 0.28674590269269856, 0.2995633740061635, 0.32389222428332126, 0.299940711394546, 0.266926646083901, 0.30652556481855087, 0.3331030763471362, 0.3178202274406096, 0.28011801198850805, 0.2789391909008775, 0.31534151501116797, 0.30711324091414266, 0.29080301599477754, 0.28354413420470675, 0.3086165219533468, 0.3038977116440077, 0.28151377741800593, 0.3045726209014679, 0.32350757138315, 0.3066659002206449, 0.2834953708423489, 0.2999553457304351, 0.303260222974608, 0.2909523011344955, 0.2871851232413267, 0.3007396521599897, 0.3158224860089498, 0.3220800898158862, 0.310987018015455, 0.29927590053648223, 0.2919149591503371, 0.2971049934439539, 0.3198289228433841, 0.31150463338267703, 0.3193627969076148, 0.3160054430441738, 0.292860272697413, 0.29725593045152143, 0.3185337433600987, 0.3145005839174992, 0.3135741765257951, 0.3088009856274155, 0.3124676227506308, 0.3092631869406248, 0.30404881403256173, 0.3174679705996247, 0.32504415551004406, 0.31531773673907826, 0.28652624192099135, 0.29232305026940997, 0.303615698983504, 0.31566305549775453, 0.3009070965626961, 0.30327229424852437, 0.3231776812313499, 0.3352919649455215, 0.3486421076482471, 0.3596466131734727, 1
0.8768173073216798, 0.6550664770529652, 0.34879832602855954, 0.10653814221638541, 0.08672334565861181, 0.1677315646496459, 0.16082008167464773, 0.14512871338330252, 0.1435085528921389, 0.14421433694074814, 0.14695478534119447, 0.1415947799792703, 0.15044919489299666, 0.15197644843669197, 0.1532790006261087, 0.172697825427537, 0.17434281598431645, 0.19213583394077632, 0.21596016247379626, 0.23539258264956722, 0.25545666344483725, 0.2842983036857073, 0.30552912083416106, 0.3355990427685876, 0.3591566166373777, 0.3859409556263583, 0.42200656844670376, 0.4328437877070917, 0.4473302823153511, 0.4549250935348876, 0.4543206054139629, 0.45426952983218055, 0.443197159727871, 0.42826966878552647, 0.4149592422245528, 0.4117208941813926, 0.3810824744247628, 0.3602074120631244, 0.34031818335997793, 0.3144780072483512, 0.29847462883122455, 0.2752184156143088, 0.24972132890585635, 0.24480227781399522, 0.2323975588180827, 0.22927594751485122, 0.2382217970202142, 0.24150800052792168, 0.24008202650312596, 0.24795965644583357, 0.2644544692942746, 0.2922366885426588, 0.3002282956273138, 0.30564110980019404, 0.31673347233271687, 0.29459016817892836, 0.2489982476258276, 0.22323084836982826, 0.21942963560844128, 0.220737988495869, 0.2040078342994022, 0.17766658383072226, 0.2105428758761529, 0.3240274980285421, 0.4621479464222711, 0.6099542116469029, 0.750973904304927, 0.8358681662407904, 0.9343608944791735, 0.9991488754551604, 1.0010628709396059, 0.9038271162142169, 0.6234995855018672, 0.27393425647720965, 0.093271299551561, 0.11421518965194388, 0.0969690165861235, 0.06249821383429873, 0.051937763385464054, 0.04095091357765159, 0.032458483890872414, 0.015244179148610131, 0.00045767715959905584, 0.0005182243020310437, 0.00014578371519675164, -0.0006789797782485976, 8.728763827019431e-05, 0.00025986767285621584, 0.0004278517959775707, -0.0009691347205180896, 0.001129180389047468, -0.000824643899656728, -0.00044770841041537346, -0.0003271692745387203, -0.0005362143082003228, -0.001520306586225189, -0.00023361142501623737, -0.0015467726513423677, 0.00042958223793383, -0.001185984976056187, -0.0010786737284980182, 0.0006494115397988686, 0.002765443940868125, 0.0005764101111415597, -0.0007864422813208548, -0.00039690507975575644, -8.768170549004024e-05, 0.0018537307808118514, 0.00048764650000549485, 0.0013858898788922465, -0.00017452697577182826, 0.0020941669797972713, 0.0003435978810647345, 0.002340128506626262, -0.0013705841234665063, -0.0009311863458186425, -0.0008637632303931605, -9.275356681824083e-05, -0.0008268348881552917, 0.0008298613237027875, 0.0012169889871667542, 0.001137238204255195, 0.0018521779496108025, 0.002731709583141396, 0.000521763751845136, 0.0012559213563511325, -0.0010734569118433725, -0.0007333622730135418, 0.0010232417641361624, 0.0006649180796398998, 8.047799082035386e-05, -0.00010673877414128963, -0.0014793823996985536, -0.00015129396459511837, 0.0006539287580058312, -0.0014919165502548194, 0.0002850645196507763, 0.0013912048690999967, -0.00022675428522294513, 0.0018918319394380914, -0.0005561684162759653, 0.0003935324203472652, 0.0016122856668206885, -0.0009758338971251176, 0.0019065364460161462, 0.0015367305038841482, -0.0005186979983833802, 8.81424165015231e-05, -0.0017309609873631187, -0.002293859598949619, 0.0009697627978689355, -0.00028876409262102625, -0.0004286420004701431, -0.0010017346793080052, -0.00020893879598017528, -0.0015062643121045655, -0.0004737903850542012, 0.001246695876505525, 0.0008282102781381043, 0.0005813109899930008, 0.0029970784815399813, -0.001567441949427586, -0.0003193007203868714, -6.998297936137254e-05, 0.0011044729671287655, -7.56283400398874e-05, 0.0009411021227357152, 0.0009499332242354362, -0.0023553297774642776, -5.9418598295573247e-05, 0.0013231658847743728, -0.001007027776221548, 0.0004093303811011955, 0.0009968492745254503, 0.0006538376206149833, -0.00010476737676331043, -0.00014404952832170977, 0.0016411986335540668, 0.0006903889005023049, -0.0014682264082153263, -0.0012396483405158361, -0.0010138695705064985, 0.0007875211369265195, -0.0019171153087409664, -0.0003559670564324085, 0.001366544003920674, 0.00021133644739985597, 1
0.9582203584994097, 0.7279592270410392, 0.08682191621226598, 0.00021116114088135424, 0.16157555590361297, 0.20520620039993984, 0.22123734095999334, 0.20793845535822966, 0.21467053622374752, 0.2163075153375307, 0.22357832811959605, 0.23547887743185722, 0.2417324707760778, 0.2399321386144275, 0.26187523985283573, 0.2578362806375245, 0.27360900877410077, 0.28457198657387367, 0.31564023999867435, 0.31788555400398755, 0.3400273905006921, 0.36638075265877246, 0.3907716609725914, 0.38732628217859244, 0.4054275716555707, 0.4124659209935066, 0.4206294985455823, 0.4089391475381615, 0.39018869692864927, 0.36675026853980147, 0.34635830301885495, 0.3223007137920774, 0.30049914211999307, 0.27710847827366847, 0.275260461153495, 0.2638631654250586, 0.26948823964311275, 0.27027878555910406, 0.2762757197287473, 0.27491350295615197, 0.278132438706552, 0.2618713553134756, 0.26495671854231034, 0.2551935001434588, 0.26954767992925205, 0.25188552906420264, 0.2661710589828209, 0.2681042355487956, 0.2707456705060449, 0.2696940813269778, 0.27163069954787955, 0.2767213402160682, 0.279710014915434, 0.2963877330183161, 0.3096867407369289, 0.3101772242361174, 0.31557273216624027, 0.314494685220506, 0.3187985377588844, 0.3044849563284841, 0.2981153603143665, 0.2934130392480273, 0.29194297851426293, 0.2970976079135885, 0.27997622646026876, 0.2629694059181573, 0.24711619825703707, 0.2508723207591233, 0.24964139355233997, 0.24822396773140284, 0.262132905924013, 0.24687650323900698, 0.23996757362074267, 0.24033991493351195, 0.3920220204943648, 0.7150007534126948, 0.998644120086151, 0.5938654668273038, 0.023412839501381788, 0.06331975374294739, 0.18427042124318815, 0.21860660158672351, 0.23437016542648528, 0.24576593496185195, 0.25405937074632173, 0.25405699902220585, 0.25853807121628736, 0.2653904016495404, 0.27811174493371466, 0.2716597746741859, 0.28902798154334597, 0.2817444123588581, 0.0005440231784551867, 0.0014107691701441816, 0.0004917456517751202, -0.00044565383281377694, -0.0011319836699128308, -0.00028756914614543435, -0.0001458674716525544, 0.00018694424440993162, -0.0003801479911666089, 0.0015098145071760073, -0.0011833324149320191, 0.0008902012968379521, -0.0005380415017846605, -0.0017706011104977693, 0.0009649358806241867, 0.00024878347923429513, -0.0003625600247336021, 1.7143595417378615e-05, -0.00021653366150688552, 0.00048550191406027544, 0.0015973024015222062, -0.0010702898693214764, -0.0009594629994557619, 0.0018972824146667399, -0.0005576083760185194, 0.00026997844736179657, 0.0015342245947208531, -0.0020233224915680173, -0.0008594604877501983, 0.0005577267101812199, 0.00045088581379974525, 0.0017747673446146426, 0.0004659683697668494, 0.00019420857643477493, -0.0013757923845574183, 0.002623644706271855, 0.001385201419237029, -0.0006001471129670022, 0.0006556206413382231, 0.0006179071002473883, 2.893533910508475e-05, 0.003738013492882349, 0.0002421997406741025, 0.0006898118504687347, 0.0007871796712990847, 0.001193819817398073, 0.000696262714380929, 3.119295031587186e-05, -0.0002055510125275611, -0.0007777008717754878, -0.0011024962773137146, 0.0009848919459772786, -0.0011829966971267107, 0.00196688235379521, -0.0002274669693074677, 0.00018398316568247512, -8.059605503413168e-05, 0.0021816616600561084, 0.000801858269857408, 0.0008736675549758238, 0.00037428572881752974, 0.0005788684087253311, -0.0011592447996854154, -0.000802586034476704, 4.572279024099613e-05, -0.0010749487377269466, -0.00035603547066761056, 0.0001589712387371514, -0.0006239495511547315, 0.0009227261888024185, -0.0007968590091607793, -0.0017660095469486357, 0.0017538200258819868, -0.00044662682547143723, -0.0011441725053871444, -0.00017913636440887074, -0.0005125696476536129, 0.0008452332849108113, 0.00041505773710880816, 0.0002458910793760812, -0.0017384050792749726, -0.0002960118387935152, 0.00010844329106831416, 0.000937436347090743, -0.0023939096767417777, 0.000658358735486479, -0.00038959236663794144, 0.0010812464946082256, -0.0005064074552166081, -0.002493184708256918, -0.0010690010875989444, 0.0008263687859381295, 0.0005107727583693234, -0.0004531161817577069, -0.0011522756166486485, 1
1.0002653380158895, 0.5663154441775899, 0.10453029278193163, 0.09012845476834384, 0.09862519429875582, 0.08365159810228014, 0.09017266207159011, 0.04910920072462141, 0.09254679907324401, 0.10896720399987143, 0.07400058043154303, 0.07432846275665608, 0.11598098610051465, 0.11027058653748804, 0.11301069437815017, 0.12646173153722506, 0.16643501773942346, 0.18327899675573292, 0.22658519295821128, 0.20706964433370692, 0.24283455567845527, 0.28140814852154145, 0.2846821094545503, 0.2883929130791229, 0.2970334772121922, 0.23476446423264427, 0.22213445411983132, 0.1923391800686224, 0.13038822643782286, 0.14839154934561652, 0.08892314465269983, 0.05506787193797163, 0.07338021653055839, 0.07410920747384052, 0.043147021032535614, 0.054334201253525054, 0.09991281336387467, 0.02481812231226021, 0.08361753506679026, 0.04737240739379313, 0.07201216318514048, 0.07084474161934973, 0.07715139077478822, 0.06345279746872988, 0.09170375203668074, 0.0784531969064783, 0.04921100018166348, 0.08092026475498507, 0.09253006441867839, 0.08584497008617983, 0.14467551098749398, 0.12134853153050379, 0.12198207696224578, 0.12514647889440184, 0.08867024367574633, 0.09327764084182182, 0.06451701675700354, 0.039179712848937794, 0.05961476762065909, 0.05304939380175281, 0.03430455363625045, 0.021023325841728672, 0.03188807714683763, 0.05246155053475518, 0.034078176988314605, 0.020708220404596068, 0.18236193591033087, 0.4907018910183125, 0.9855016940024225, 0.93170477775193, 0.3769982145237939, 0.06227400867162744, 0.01888743721790124, 0.04243635846472057, -0.0011499365431660682, 0.0029301921538758425, 0.025442316903805735, 0.009886365614114294, 0.009945231269899059, 0.007028696716626031, 0.01854392031060261, -0.00047579551052536227, 0.0013162704895219076, 0.001157980413371449, 9.684396300049466e-05, 0.000791602555145944, -0.0005304541671993021, -0.000176803305531837, 0.0013224117746525373, -0.0004351196862877686, 0.002328645343202067, -0.0019482835347468643, 7.444059877086545e-05, -5.696728734156193e-05, 0.0017175766256455908, -0.0021857568583550286, 0.0008468333693705381, 0.0011109112794604372, -0.0007050315948280921, 0.0005407000624420942, -0.0017913588450750458, 0.00018069668566763627, -0.00048398151056725425, -0.0008982603326806453, -0.00042800552076012504, -0.0007673779466969288, 0.00035562322703866413, -0.0013995642284452942, 0.001199237279018999, 0.0004294635169964612, -0.0004169472560608644, -0.001162257057659196, 2.7644088710686703e-05, -0.00010930593345091704, 0.002481915072920736, -0.0006454838254651644, -0.0007870477750089279, -0.0018553651574431534, -0.0005765606103534626, -0.0002631469526084191, -0.0009366041684881738, -0.0016887743181528945, 0.00041579784903637905, 0.0002703802413966141, 0.0002445655164519691, 0.0002857731527092304, 0.00010272023976873787, 0.0013665038153322824, 0.0009691690351023401, -0.0020218477095144843, -0.00037461155909268324, 0.00018747517824362517, 0.0003888214392902534, -0.0003313721610589731, -0.00022787986500482255, 0.0004655612876765893, -0.0002744178694757517, -0.0009181363654322555, 0.00015124140802210502, -0.0009316317489095671, 0.00118529988494023, -0.0011067366709812797, 0.00023054864304227076, -0.0010955021093198096, -0.001023038978977476, -0.00010279351183160575, 0.001205630298362153, 0.0004721905439862954, -0.0005562101687179491, -0.0014565151723213046, -0.0011718369124564584, 0.0025098246884817706, -0.0014692402830691134, -0.0004681625601225618, -0.0017780855250283272, -0.0006706666873694271, -0.0001879380287333187, 0.00013338518959391343, -2.8556622482612404e-05, -0.00244594406034802, 0.0018699911396734216, -0.00014102920046480037, 0.0018698741299820374, -8.654218768834363e-05, -0.0006537179511936562, -0.0018071318951069753, -0.0004062542960805292, 0.0003381232367011412, 0.0007435216086492153, -0.00025529897542668885, -0.0011708378503857745, -0.00014250330657103287, -0.0014854381631583852, 0.0005061114700800895, -0.0005595827685538879, 0.0009764288060703634, 0.0008845645857052189, 0.0009585976762038842, -0.0024201618932334613, 0.000463918360620847, -0.00044411848335802176, -0.0003934062170061071, 0.00013700733448055824, 0.0002459025283482496, -0.001186009401773199, 0.0004953677734246567, 0.0007914500076928195, 1
0.9708523960578946, 0.9323868104267063, 0.5409536475212369, 0.40290629479850315, 0.38117083358126064, 0.32184114871847674, 0.27447187038441234, 0.22078119972108837, 0.18740307295632025, 0.14371746127285936, 0.12421546119981865, 0.09998112435369773, 0.10917221606690797, 0.09542471441784726, 0.10421636232489959, 0.09038219033206862, 0.09639347823687573, 0.08497618420284535, 0.08857495150537284, 0.07530074121378576, 0.073697132752667, 0.05506594331203069, 0.053507300364756157, 0.04422321144044536, 0.040847864386359956, 0.013510214469596686, 0.011812868551389036, 0.00914286391359332, 0.008016480228743699, 0.0016738761197496808, 0.034004734894438296, 0.04071924564133174, 0.08189611935927457, 0.0990906568149033, 0.14084132647250422, 0.14526318323822687, 0.16839753971405044, 0.18284090924559623, 0.1968854212939779, 0.19420053263188114, 0.19888476147807305, 0.19703874793213202, 0.19398158370142188, 0.1895208267186459, 0.19201020015006204, 0.17283273428064463, 0.17966019251802445, 0.17016334644508274, 0.18236373750370188, 0.1740069832125459, 0.17795199680734042, 0.17944073925975637, 0.18266650347287341, 0.17138748988578867, 0.1819340354953194, 0.18288799831552593, 0.18897603139010127, 0.17407277218198586, 0.19023570393084194, 0.17243101134924696, 0.19315528702681023, 0.1785237627541424, 0.193984951797659, 0.17980903838693235, 0.18504729678668477, 0.18191579695040055, 0.17986227468028906, 0.1952594923974886, 0.20327405818927577, 0.19468790045812331, 0.20535524267604538, 0.20562981105004938, 0.2108753170989606, 0.20046323415080286, 0.21420599090159018, 0.20285683130484158, 0.1980058686870515, 0.1790362587961342, 0.18442774797733208, 0.1839714747807829, 0.18313824305942394, 0.1793647611148805, 0.18460570928495088, 0.17366469094929313, 0.19524768761946754, 0.17010202070752384, 0.18172355407654722, 0.30127004797363144, 0.4569330464295376, 0.654070227812183, 0.9188912878190212, 1.0006055149538067, 0.9258001879550062, 0.6482610914186596, 0.4010075774747527, 0.34418774459143325, 0.2936329572666134, 0.23949617288180533, 0.22755707884039164, 0.189703246334134, 0.16356264566870063, 0.13176535545758072, 0.13003087451754408, 0.11617772223504273, 0.11369445569797493, 0.10033613388161218, 0.11792298085880779, 0.09341914184146997, 0.10466503883152588, 0.080287028282978, -0.0010349340228330958, -0.0014456724662518488, 0.0001473194191980341, 0.00031754581679534433, 0.0008406322205720072, 3.611483588512185e-05, 0.0006255851171945841, -0.0005450217651270854, 0.0007528182617291685, 0.0016403142780655896, 0.00030407962687465533, 0.0009299962979642774, -0.0010693023598457936, -0.0014906112920296392, -0.00024364787613609067, 0.0004929777172489072, -0.0006520212976859689, 0.0011591496725473984, 0.0004410114943825143, 0.0001359270076477854, 0.0008293012093749747, -0.0006921249877541672, -0.0020679067371981116, -0.0006331986496543255, -4.248981319235124e-05, -0.000559198544734302, -0.0015999599398383274, 0.002406168990445424, -0.0010193606891750638, -0.00027897776858396304, -0.0008673885787090823, -0.0004871352185732929, -0.0005704886290835884, -0.0005663493129080832, 0.0004828614678634892, -0.00033580127626860613, -0.0014472298771821082, 7.0111010401255e-05, -0.0005817735539872361, 0.0016595027881198604, 0.0008068991364979708, 0.0002719284218840906, 0.00023919808808615549, 0.0004336565070920609, -0.001633744614238773, -0.0009285740906901809, 2.4887433355338567e-05, -0.0006467675307093607, 0.0011293452294506004, -0.00044906605800820455, 0.0008831946284726729, 0.0017045519273883726, -0.00024157689010818718, -0.0013102385943633574, -0.0014214010663124797, -0.00041100770973686885, -0.00024012137400666094, 0.002227636590765531, -0.002008192412121203, -0.0010589942186736369, 0.00030676763487027636, 0.00035061032465470986, -0.0007880521138702016, 0.000915048098891697, 0.0001807731330012525, 0.0001951883940931264, 0.0003478137114212217, -0.00031397144777806877, 9.032114348689003e-05, -0.002016477242275593, -0.0009833884555984474, 0.001002625682897895, 0.00026382072194660206, 0.0006685804447540516, -0.0003561275927153099, 0.0006227715195602359, 0.000963770376981853, 1
1.0003484329008743, 0.8561317294922054, 0.512254415828388, 0.4899143987185789, 0.5561788121642167, 0.5381689621344747, 0.523368299035748, 0.5254707332902047, 0.5211542530054065, 0.510975562324021, 0.5076889331976441, 0.5214373889166758, 0.5210035407654198, 0.5180495819420179, 0.517955232388444, 0.5238864333212857, 0.52506387938655, 0.5200384511813915, 0.5221963309063881, 0.5290297271045733, 0.531725703564021, 0.5253677773756967, 0.5232668170018193, 0.5322950935484287, 0.5391063734098303, 0.5292930350817846, 0.5328626026413495, 0.5413426529907998, 0.5440020022752131, 0.5376296854779918, 0.5370476658345928, 0.5464863676547376, 0.5483453259536257, 0.5422059958692931, 0.5474222935021484, 0.5610040813629887, 0.5744106741408702, 0.5707222086528884, 0.5694740258328985, 0.5724070110721281, 0.5705026087357384, 0.5686982510282795, 0.5916487328838561, 0.588134940814786, 0.38097390992271096, 0.11259465526042088, 0.019278915434322738, -0.00014612412710715783, 0.016471171449893712, 0.07491852176492649, 0.16852214905583954, 0.270662258109811, 0.30202362465962485, 0.30473666692029966, 0.3287075048024094, 0.3947878508671059, 0.5397897556654294, 0.6144255141957368, 0.6216435978126519, 0.6359039452315803, 0.6471435148549962, 0.6485968419491159, 0.6598695516446352, 0.6825216231585806, 0.6925397195912543, 0.6977521860602719, 0.7180037227561676, 0.7416658097044692, 0.7659521342164742, 0.7868560828190067, 0.8120156752375267, 0.8424347788770167, 0.8735445178207482, 0.00044962805284448686, 0.0007538614761403513, -0.0016805969757835624, 6.77737752970594e-05, -0.000797821242945852, -0.00021797868952078565, 0.0006873867117205499, 0.0019750739495371875, -0.0006417306159156581, -0.0006015527541553759, 0.0008573668137194928, -0.0008347101799170571, 0.0005155226789491135, -0.00044114270103465643, -0.0006084274493928961, 0.001411393175013462, 0.0003785209466448192, -0.00023091692239268001, 0.0004079180353926681, -0.001601468071068642, 0.0008568715542627877, -0.00012737257184995498, -0.0006784017813699651, -0.0009772503141425625, 0.0009592447701448886, 0.0014135955147292045, 0.0008833071032126414, -0.0008479780359860929, -0.0008510184816449608, -0.001578767887711664, 0.0005656033822913036, 0.0008183044491900281, 0.0003387285519029167, -0.001901663318533639, 0.0008530819996298427, 5.997111584532679e-05, 0.001569350518271014, 1.3959440376817297e-05, 0.0009531483388004768, -0.00010375994933833636, -0.00012944838095403863, -0.0009862637083139182, 0.0006474138904502509, -0.00025769941057739377, -0.001650759087375521, 0.001140892370035993, -0.00031858315741733356, -6.656636981662471e-05, 4.14756586150396e-05, 0.00029595293388451994, -0.0009129837864540886, -0.00053893802052106, -0.0006628319224690834, 0.0005779773644109426, 3.595198996199396e-05, -0.0008692733503750968, -1.7923939863609002e-06, -0.0009802322787267836, -0.001887031371032501, -0.0008250495899402369, 0.0002987594763730403, 0.0006310364061291696, -0.00030289993742045243, 0.001738689201813551, 0.0003930972600285844, 0.0005069331009217408, -0.0006439013362671834, 0.0013389253631430403, -0.0005077318173651049, -0.00028981911997938225, 0.0011437516569760046, -0.0011527317987020753, -0.00015994291266022967, -0.0015394739924397087, -0.0010899406907299474, -0.00010270318426500439, 0.0006246145949342409, 0.0012267286490666824, 0.002139284352153034, 0.00024894187313526746, -0.00023461017111628459, -0.0012381961006938237, 0.0004844768770895864, 0.000254201993664186, 0.0011021959104300905, 0.0003180476841266067, -4.3740596570567467e-05, -0.00023605141027130877, -9.510887400458391e-05, 0.001120359431444843, -0.00034909723206229596, 0.00018338241632925414, 0.00032710392713213406, -0.00011266887901989467, 0.00017841548189895495, -0.000292366971562851, 8.908329444961932e-05, -0.0007120069227777758, -0.0010686099302496615, 0.00010930608844250754, -0.00017839538316393588, -0.0002183983718188575, -0.0006292338719591782, -0.0017481639622311778, -0.0014443348461211196, 0.0005013007390887614, 0.00012746543376364254, 0.0002726808759529823, 0.00030855429354572294, -9.348501399797162e-05, 0.0004898420909706702, 0.0017094898697675163, 3.0417459041905765e-05, -0.00030423865550649004, 1
0.8780697480420024, 0.7631250015425948, 0.3371098141623131, 0.00027428451985931013, 0.057369965665653805, 0.06971372318109859, 0.057638981785632315, 0.040094875857817396, 0.04304622780808438, 0.01774363175448326, 0.03277886693002671, 0.008882080723649368, 0.029619986835548884, 0.013135543109038163, 0.027764724829188195, 0.018096480485601623, 0.03541899225840186, 0.013933310687598061, 0.04334445012649447, 0.0389861709696114, 0.046486000884125, 0.03776219185108493, 0.05913629625479077, 0.05367424456753281, 0.0836566153179949, 0.08093503626661273, 0.10801707497069746, 0.11386681133319969, 0.14869267429284727, 0.15508375240736855, 0.17883345317390206, 0.17519011657039305, 0.18905017429558107, 0.17588909384924203, 0.1851825846841777, 0.1684474145091888, 0.17691264181476132, 0.1422714523556744, 0.1315520633650167, 0.11050006103518219, 0.10936297497851467, 0.09153498695966539, 0.09178057686670879, 0.06496357352953433, 0.07709910734421926, 0.05481187447694656, 0.08135901857901935, 0.059958278019766637, 0.06826969092351347, 0.06543295770109378, 0.08701500071905197, 0.076985972502779, 0.08829209234964108, 0.08447021758191368, 0.10421436323068334, 0.09070601634607409, 0.10452255089149629, 0.09263646758576051, 0.10515616350075452, 0.09182938097881047, 0.10941506055751744, 0.09510053296176413, 0.1087033110486523, 0.09394567520833771, 0.10476104342103595, 0.09040352851780702, 0.10533773743902902, 0.08924952878450071, 0.10571540842064658, 0.08691736330942375, 0.11474674366040122, 0.10381702584685318, 0.10508412059896817, 0.08747061183408125, 0.1020937323079995, 0.08406813493949752, 0.09970681997784943, 0.1181911336028367, 0.2472496283433711, 0.4582380575891309, 0.7913940359353417, 1.0001566020285555, 0.6893532398294737, 0.1904945899310944, 0.043623798286295624, 0.09185010231824528, 0.07228280869608994, 0.04698742029245453, 0.06358331932376526, 0.043187378115177734, 0.0600425114983026, 0.041443868497915655, 0.04605406563705588, 0.030675033997120803, 0.0390046627006117, 0.020620573077592422, 0.00022387339591919503, 0.00037952511250167537, -0.0009848887036101569, -0.0011609330216853376, 0.00018197593203729868, -0.0011006028072965798, -0.0006146627029010323, 0.00017507278673359463, 0.0004496521178493544, 0.0006678556170717827, -0.0009287889186559791, -0.0009411150364973273, 0.002120875392174082, -1.5865520703043835e-05, -0.00046106324414108235, 0.0012069609674792323, 0.0009656864878498702, -0.00020878349251390562, -0.0006273448512713286, 0.0007251547628887743, 0.0013545899644715714, 0.0003831034845405125, -0.00023818040757427267, -0.0004272094033184626, 0.0010910188458154867, 0.0009814667632821708, -0.0016682155178491102, -0.000694151225386924, 0.00029611200851471965, 9.911360742379884e-05, 0.0006149846020617456, 0.0013879934685921322, 0.0005625176316508062, 2.6440034126230234e-05, 0.0019246817837478432, 0.0003971407489785858, 0.0007333418406620722, 0.0009277908692570096, -0.00038941507920180467, -0.002270257848063326, -0.0001625011403672601, 3.23784849422305e-05, -0.0005736741724852625, 4.6020522719402705e-05, -0.0010981902693217105, -0.00040998438788271863, 0.001735522067643991, -0.0005965023294254867, 0.0006650339095355083, 0.0005857889408427851, -0.0004481732901548003, 0.00022849729119648322, -0.0007919363146821842, -0.000512247484982472, 0.0005516970454739234, -0.0011629802298315198, -0.0006621704922454468, 0.0010123426322168677, 0.001012795292450145, 0.0015277693762160527, 0.0018300907331428046, -0.0006840855957665664, -0.00022801088030310475, -0.0009595392476142502, -0.002998170352679489, -0.0005490258582163029, -0.0016085434017530597, -0.0002942437264470715, 7.977647017147816e-05, 0.0006053023973615131, -0.0009210979482550502, 0.00012123254111071936, 5.7218307824385936e-05, -0.0008922791154473469, -0.0012301434586801175, 0.0003519249609311419, 0.0008826113891149907, 0.0015285281078200792, 0.001086105376853922, 0.0013557363162014875, -0.0006374914476840945, 0.0004891426152450806, -0.0015376190403605576, -0.0001227386253092091, 0.0018829551347316195, -0.000409947967181338, 0.00019368780275818206, -0.0015497852650646188, 2.4404878820979264e-06, 0.0009639574137452725, 1.3788021367878415e-05, 1
0.9996496008415533, 0.8436492299706394, 0.5211025609214409, 0.16699743736954267, 0.05802651303679469, 0.15504140888358348, 0.23253260413674146, 0.27899526553456694, 0.3166956480611322, 0.31477343111251593, 0.30184894508239213, 0.3182796395484515, 0.31494687624608414, 0.292484686659901, 0.28906791350898686, 0.31027611116371157, 0.3132948203253446, 0.2850845980356655, 0.28270801852124317, 0.29159004681358824, 0.2848762110714052, 0.2605179098113532, 0.26811372205629586, 0.26723811654375634, 0.2712937663239133, 0.251707741342443, 0.23891389212219968, 0.2410892706395657, 0.25746213989297473, 0.2473147567796357, 0.24241640108807025, 0.26719379241796704, 0.26661222336488927, 0.28513703142407354, 0.3068447226436954, 0.35424492217293035, 0.3939939001167581, 0.43531934813721956, 0.46590283157018425, 0.4942749839207813, 0.5309707923543315, 0.5217859455845812, 0.5105780961877159, 0.5095827624752173, 0.5103912074001983, 0.48632809885746053, 0.4749308775257707, 0.4850928891299927, 0.4865283525480412, 0.453458055017259, 0.4557008551525908, 0.45836543056269285, 0.469453822633895, 0.4510920514756673, 0.44220388813365447, 0.4496786175944121, 0.465041698515115, 0.44655970113368865, 0.4415521464347217, 0.4547631133250886, 0.47425939726681393, 0.44267272038748073, 0.44251133412916926, 0.45446558656765595, 0.4477970571751807, 0.44020960360164696, 0.45563556841285235, 0.49837318452074325, 0.5134459824185973, 0.511213128441945, 0.5019449247885325, 0.5322338425581201, 0.5378380005187509, 0.48996742433058366, 0.45175508606093784, 0.4582899214065017, 0.44312342866641996, 0.3951057707671151, 0.37648284682714583, 0.3954618084028506, 0.4016814691991216, 0.3942516133462137, 0.373417391321497, 0.3780444747976044, 0.3901635149915553, 0.378330104576536, 0.3778578359453783, 0.40742854738905737, 0.5091678655245903, 0.7063692190795583, 0.9164069129742686, 0.8614961208875477, 0.5535061901306378, 0.1994834856135368, 0.0005401158586045234, 0.13364394596433854, 0.20315336904773396, 0.24394359193219753, 0.2730519722443477, 0.29732544662847654, 0.3022454206027522, 0.29008719080328993, 0.2909911080112443, 0.29007213187077885, 0.30244378672669864, 0.2903115442175347, 0.2789456079303538, 0.28434729894399635, -0.00044474260814880457, 0.0009573342251439757, -0.0010039394092289159, -0.0006422473509277536, -0.0023448123004417513, 0.00039782523180758916, 0.0019307165295251007, 0.00017596271547730335, 8.264992092999882e-05, -0.00016145683237527372, -0.0019199380128889238, 5.695130221751409e-05, -0.0009641207873146087, -0.0006765853553244677, -0.0007940513861102351, -0.00061523198033697, 0.0012047246720715003, 0.0008166721956820117, -0.00013566135309421072, -0.00010923534465507387, -0.0021478796932940056, -0.0006254070146797199, 0.00014036047243838905, 0.0010708350903757915, 0.0019840447701343655, 0.00032936126774469926, 0.0012915046898917314, 0.001186486402164515, 8.554768731630721e-05, -0.0005343270183033313, -0.0006545255151001795, 0.00030693733785681844, -0.000491603887130496, 0.00017655596183710593, 0.0006146239025124453, -0.00033862834396689847, 0.0012420375372365958, 0.0008709592054826061, 1.1187822515970404e-05, -0.00045565597589529753, -0.00032771434936674615, 5.909575852718663e-05, -0.0013701709744052288, -0.0003330632989207775, -0.0006055363006824691, -3.988526695328769e-05, -0.0021541623926674934, -0.0007703400740388412, -0.0012259337308662011, -0.0014391240199829332, 0.0026045831116885063, -0.0005674559025967042, 0.0008076918878196929, -0.00033128834824787347, 0.00012477743788246527, 0.0008585099428141673, -0.0018566964904286765, -0.0010932708437331703, -0.00038428857527688395, 0.0016626726729790018, -0.0003551215658025552, 0.0014371880362310865, -0.0004070964294807424, 0.0005837950164538442, -0.0010981590931659977, -0.00010155768903873016, 0.0011696136729923603, -0.0004115454401283676, 0.0005581394142356007, 0.0013366617163000577, -0.0007695982833644755, 0.0001273222576551677, -0.0006912369616648891, -0.000370224867236197, 0.0015067022924175775, -0.0017361208097868327, -0.0016555944081421933, 1.4871134697694103e-05, 0.00017674359462078069, 1
1.0000378468615971, 0.5663309004093162, 0.0008657045669450801, 0.09790645218736402, 0.1855867073261402, 0.12800990410773141, 0.09791335064886668, 0.10533471916000657, 0.09811380216347582, 0.09062036665696521, 0.09540791604730048, 0.10223782618325175, 0.09844465700077452, 0.10177310393294994, 0.10189447356835855, 0.11730465049303399, 0.12635521926422105, 0.11644932332636973, 0.11327247948579794, 0.12312384136793755, 0.126937782041556, 0.12037350009641926, 0.12263345095853777, 0.13616223144157943, 0.1347135536810995, 0.12778831803271867, 0.13299939442977277, 0.14726827892065475, 0.14717616755499457, 0.13692908588977176, 0.12471757066120011, 0.15190819837918332, 0.16168475684402883, 0.15478079294945915, 0.18876811979809086, 0.20621742839173374, 0.21345401318815152, 0.20048832732798783, 0.18049711507415217, 0.17736715323907026, 0.1669978200007193, 0.1392114273515457, 0.12872330796894724, 0.13254784523455793, 0.1284736658925382, 0.11429205605162607, 0.11041460664962473, 0.12289642582872609, 0.1179298258641104, 0.10320432360892265, 0.0940916056990368, 0.09840959607493995, 0.0989460962945953, 0.07766376655265679, 0.08302007760671444, 0.09471856356960091, 0.09688863534162596, 0.09207398587205395, 0.08625350563554081, 0.09937739034436815, 0.09132433111403905, 0.0864695977124021, 0.08329735786223165, 0.09874572898683981, 0.08580082229258874, 0.07831426887825468, 0.08353618799581515, 0.0987710370632574, 0.10173728376662759, 0.1134632097094719, 0.12023864801545327, 0.13727355125636273, 0.1662213204408013, 0.15378185694037297, 0.11321422009032141, 0.12936832127550935, 0.11759594127561798, 0.1034412010143178, 0.09102644291514228, 0.08809099065811143, 0.08780872278472615, 0.07536827526880271, 0.08235543997868085, 0.09402245562302568, 0.09714272869177273, 0.05775312154810926, 0.06868459114214844, 0.3163397438216601, 0.7919159048169245, 0.9963110912951862, 0.38605693071844954, 0.010010866066313767, 0.14270944105340336, 0.1731637519008605, 0.13243002940558188, 0.11961710725384438, 0.11708574282228487, 0.1014837751990192, 0.09334964850923438, 0.11695907747983983, 0.11154532217729313, 0.09885569772399051, 0.1030566141896149, 0.12341285773926168, 0.1318499964570094, 0.11567139966415765, 0.11272168794920813, -0.00025362544543435195, -0.00019690046484566415, 0.000773501278769461, 0.0007530586160935997, 0.0006431658434669686, 0.0007624913478790552, 0.0018235519330010621, 0.0016548606924148765, 0.0009960818358519846, 0.001343629521637291, -0.0009620887433748329, -0.0010771375419873178, -0.0003717914230156116, 0.001067223569192777, 0.0017407959188404127, 0.0004438605564140796, -0.0018375028802211496, 0.0005416837626172109, -0.0006081684771891121, -0.0007371070525146426, -0.0007455787687964663, 0.0009611563658186681, -0.0006890236506904839, 0.00021451176642319929, 0.0005991610237591614, 0.000621159200152215, 0.0012861898651542127, 0.000406493870295923, -0.001147077966690414, -0.0025177906590224904, 0.0015077801224079167, -0.0003567170875870153, 0.00018966847195538874, 0.001445018407044723, 0.00030926339128697596, 0.0005565239883047497, 0.000617821961048698, -6.0672750184501824e-05, -0.0006112715989934127, -1.1683661797662563e-05, 0.0015521249787653303, 0.0006914644796207212, 0.00146237152830839, -0.0016053798719783783, -0.0008516684137619092, -0.0006646841644799972, 0.0018139542355212032, 0.001272256839943056, -0.0004852205611015405, 0.0009062533152697174, -0.0016192227399678709, 0.0007790184380941204, 0.001220865011025324, -0.002301238269690003, 0.0005754663484711673, 0.0018343559644337936, -0.0010803140663790292, -0.00016394331136835753, 0.0007736745114518107, 0.0012617831340503535, -0.001077488012016462, -5.8060335818578684e-05, -4.165333470338972e-05, 0.0019309188573340761, 0.0005609029236428046, -0.0010882643392019838, -0.0002926806865677315, -0.001116314758570104, 0.00038748589758703326, 0.0021243607337440673, -0.0011552110847074647, -0.00075129758406947, 0.0008185805257274406, 0.00018819134403398973, 0.0025929090681884068, 0.00023827436694504435, -0.0003484008329253504, -0.00023398187637358895, 0.00035384618415883, -0.0005251539331608474, 1
0.9987979506253841, 0.9354677855026613, 0.7681322118003516, 0.5191950125933297, 0.27870045323406883, 0.15067677192178014, 0.14303157060103047, 0.1445173191037813, 0.13896682077807931, 0.14950501608793546, 0.17103981432311147, 0.17163892794978108, 0.17130775006344656, 0.18284742940891424, 0.19963814577274436, 0.1823061317809595, 0.16586464705882473, 0.18691630322711486, 0.2216696579391135, 0.21866896059802518, 0.17667809809938245, 0.23511984978730538, 0.2412527398887062, 0.2306808027161548, 0.2134218897925806, 0.23591874252311504, 0.25829065993112826, 0.2458796127625978, 0.24569132602515165, 0.2516376740258953, 0.2904817323939837, 0.27717421958655114, 0.25266336022451674, 0.2676981733272734, 0.28903012339933154, 0.26327375882002907, 0.21974789493568408, 0.23098427907841432, 0.21519303203012194, 0.19470615611863998, 0.11657255896812331, 0.10259835946848635, 0.1307067932254144, 0.08572199493811453, 0.057530970846140804, 0.06924347350041271, 0.09208981718241138, 0.09092305246871003, 0.06476454258287184, 0.07078995228585759, 0.07097472718999248, 0.04695817367710095, 0.038591142453968344, 0.03225376316555639, 0.06328304551659719, 0.02792744143812885, 0.010303427205989712, 0.033801542992670665, 0.04792646655006397, 0.02252262423988276, -0.001082270461014752, 0.0218258637982823, 0.02600692591981124, 0.014727676929234912, -0.0003000028047581661, 0.004909846130001895, 0.020856872324618726, 0.006446409614580143, 0.005123209627948154, 0.004319237437894252, 0.02648902030551739, 0.016380453100319964, 0.010814171723809964, 0.011116457779857347, 0.013859298330540795, 0.01429030219901072, -0.0007648886184281771, 0.009656351297012979, 0.038263910021921, 0.022115415639832353, 0.006797637234190746, 0.0059652164765577305, 0.03691177943443673, 0.020813326686973745, 0.01574158350311397, 0.01588703083574924, 0.05314445606240231, 0.020804721579737246, 0.0045627326401992355, 0.006000575009236299, 0.04803469290658058, 0.021860621732121624, 0.010871289379072616, 0.043748946311278424, 0.04171756195227874, 0.023242046273883068, 0.011786823087104943, 0.022510843518395537, 0.037652985319765214, 0.03271613774951437, 0.022438780101532413, 0.037549507820713375, 0.04384141820224746, 0.028450454954013646, 0.04733237832909071, 0.07537551678835942, 0.08202611433945692, 0.08019090251705265, 0.07364615400053337, 0.06406184403720278, 0.08601963329653904, 0.07614916847857343, 0.04844346417277831, 0.02778054650620647, 0.027997696501241027, 0.025901917833665234, 0.0003408519921917106, 0.02604684918171103, 0.04182462348420221, 0.05362317108260606, 0.09096239377832814, 0.28567020406246163, 0.6023852087587912, 0.7996076432987587, 0.8617224242350536, 0.9305524428002959, 0.7587049787185559, 0.5206201982113882, 0.30080146120370244, 0.13482447876725803, 0.03742689223041046, 0.03250368680710642, 0.03849233899873039, 0.05414021997135029, 0.0638725365750265, 0.06531713518973932, 0.06100226142662375, 0.06413652302704421, 0.08732275686863927, 0.09049664039396135, 0.09019250469845932, 0.09097588807187063, 0.12787431649927794, 0.10976753765653091, 0.10924631307310786, 0.10663964074909706, 0.13204652088105231, 0.11775741255526843, 0.12175227529528616, 0.000743978430429498, 0.0008727856113620629, -0.000897690676272962, 0.0005188065400946463, 0.0010168717200934856, 0.0013709754582338627, -0.00016244256072849987, -0.0010209126722568601, 0.0019400445266137768, -0.0009129909224096317, 0.0003538499976065609, 0.00013800387629738474, 0.0012531545052789353, -0.00015669264749836512, -0.000688001028045608, 0.00012496388092955144, 0.0006739020946626139, 0.0005039099578505923, 0.0004098120688275257, 0.0005785750616927296, -0.0001988304156998631, 0.001185263198366725, -0.00019739118941528586, -0.0005104171617357973, -0.0009472090933391788, 0.0010949447356643, 0.0008357250516386022, -0.0010776824007799576, -0.0007035904814352871, -0.0013744979949422793, 0.0011887745518711274, 0.00022865326618722682, 0.0007278771513321987, 0.00023252664208094857, 0.0009765023655882707, -3.589463483736639e-05, -0.0003655542208548158, 0.00037575736149253035, 1
